,Time (s),ECG (mV)
0,0.0,-0.887604
1,0.001,-0.913849
2,0.002,-0.88623
3,0.003,-0.880127
4,0.004,-0.930634
5,0.005,-0.906525
6,0.006,-0.902557
7,0.007,-0.917511
8,0.008,-0.947723
9,0.009000000000000001,-0.975189
10,0.01,-0.93811
11,0.011,-0.946045
12,0.012,-0.951996
13,0.013000000000000001,-0.93689
14,0.014,-0.959778
15,0.015,-0.935364
16,0.016,-0.878143
17,0.017,-0.870361
18,0.018000000000000002,-0.907898
19,0.019,-0.903625
20,0.02,-0.883942
21,0.021,-0.93689
22,0.022,-0.914612
23,0.023,-0.914612
24,0.024,-0.892792
25,0.025,-0.931549
26,0.026000000000000002,-0.903931
27,0.027,-0.88623
28,0.028,-0.877533
29,0.029,-0.90683
30,0.03,-0.902557
31,0.031,-0.925293
32,0.032,-0.914001
33,0.033,-0.875702
34,0.034,-0.915833
35,0.035,-0.921173
36,0.036000000000000004,-0.878448
37,0.037,-0.850372
38,0.038,-0.850677
39,0.039,-0.807343
40,0.04,-0.86792
41,0.041,-0.818329
42,0.042,-0.843506
43,0.043000000000000003,-0.840454
44,0.044,-0.861816
45,0.045,-0.870667
46,0.046,-0.887299
47,0.047,-0.913239
48,0.048,-0.887146
49,0.049,-0.860138
50,0.05,-0.887909
51,0.051000000000000004,-0.904236
52,0.052000000000000005,-0.880585
53,0.053,-0.847015
54,0.054,-0.897522
55,0.055,-0.883636
56,0.056,-0.861969
57,0.057,-0.860138
58,0.058,-0.832977
59,0.059000000000000004,-0.874023
60,0.06,-0.851898
61,0.061,-0.886688
62,0.062,-0.943604
63,0.063,-0.906372
64,0.064,-0.924225
65,0.065,-0.962219
66,0.066,-0.932922
67,0.067,-0.912476
68,0.068,-0.914307
69,0.069,-0.906677
70,0.07,-0.918274
71,0.07100000000000001,-0.916748
72,0.07200000000000001,-0.922241
73,0.073,-0.889282
74,0.074,-0.903168
75,0.075,-0.904694
76,0.076,-0.856476
77,0.077,-0.875854
78,0.078,-0.850677
79,0.079,-0.861359
80,0.08,-0.869904
81,0.081,-0.875702
82,0.082,-0.912781
83,0.083,-0.861359
84,0.084,-0.860443
85,0.085,-0.870819
86,0.08600000000000001,-0.888367
87,0.08700000000000001,-0.858154
88,0.088,-0.90744
89,0.089,-0.830688
90,0.09,-0.821686
91,0.091,-0.841675
92,0.092,-0.821991
93,0.093,-0.883331
94,0.094,-0.883636
95,0.095,-0.888062
96,0.096,-0.891724
97,0.097,-0.875397
98,0.098,-0.889282
99,0.099,-0.870514
100,0.1,-0.894012
101,0.101,-0.917816
102,0.10200000000000001,-0.922394
103,0.10300000000000001,-0.919495
104,0.10400000000000001,-0.892792
105,0.105,-0.870209
106,0.106,-0.874329
107,0.107,-0.851746
108,0.108,-0.884705
109,0.109,-0.881805
110,0.11,-0.848846
111,0.111,-0.858154
112,0.112,-0.881042
113,0.113,-0.882721
114,0.114,-0.857086
115,0.115,-0.812988
116,0.116,-0.79895
117,0.117,-0.828094
118,0.11800000000000001,-0.863342
119,0.11900000000000001,-0.888367
120,0.12,-0.86731
121,0.121,-0.921021
122,0.122,-0.85556
123,0.123,-0.861053
124,0.124,-0.891266
125,0.125,-0.914001
126,0.126,-0.877533
127,0.127,-0.882263
128,0.128,-0.869293
129,0.129,-0.865936
130,0.13,-0.876312
131,0.131,-0.897217
132,0.132,-0.874176
133,0.133,-0.822449
134,0.134,-0.837708
135,0.135,-0.850372
136,0.136,-0.851135
137,0.137,-0.890045
138,0.138,-0.906219
139,0.139,-0.917053
140,0.14,-0.874634
141,0.14100000000000001,-0.847473
142,0.14200000000000002,-0.920868
143,0.14300000000000002,-0.899811
144,0.14400000000000002,-0.877838
145,0.145,-0.859375
146,0.146,-0.862732
147,0.147,-0.869446
148,0.148,-0.901794
149,0.149,-0.844727
150,0.15,-0.850372
151,0.151,-0.830688
152,0.152,-0.854034
153,0.153,-0.821228
154,0.154,-0.821381
155,0.155,-0.770874
156,0.156,-0.801849
157,0.157,-0.772705
158,0.158,-0.741577
159,0.159,-0.782623
160,0.16,-0.774994
161,0.161,-0.758972
162,0.162,-0.718384
163,0.163,-0.711212
164,0.164,-0.705719
165,0.165,-0.688324
166,0.166,-0.692902
167,0.167,-0.628967
168,0.168,-0.649567
169,0.169,-0.710602
170,0.17,-0.682526
171,0.171,-0.634766
172,0.17200000000000001,-0.610657
173,0.17300000000000001,-0.605316
174,0.17400000000000002,-0.59494
175,0.17500000000000002,-0.590057
176,0.176,-0.601654
177,0.177,-0.562744
178,0.178,-0.564117
179,0.179,-0.536957
180,0.18,-0.534515
181,0.181,-0.557709
182,0.182,-0.538788
183,0.183,-0.542297
184,0.184,-0.540466
185,0.185,-0.569458
186,0.186,-0.559082
187,0.187,-0.559692
188,0.188,-0.50827
189,0.189,-0.508118
190,0.19,-0.536194
191,0.191,-0.513306
192,0.192,-0.525665
193,0.193,-0.48645
194,0.194,-0.492096
195,0.195,-0.563812
196,0.196,-0.570374
197,0.197,-0.623322
198,0.198,-0.616608
199,0.199,-0.619202
200,0.2,-0.650635
201,0.201,-0.608826
202,0.202,-0.577545
203,0.203,-0.594025
204,0.20400000000000001,-0.554199
205,0.20500000000000002,-0.590363
206,0.20600000000000002,-0.56778
207,0.20700000000000002,-0.57724
208,0.20800000000000002,-0.609741
209,0.209,-0.600739
210,0.21,-0.580902
211,0.211,-0.539703
212,0.212,-0.558624
213,0.213,-0.625916
214,0.214,-0.608978
215,0.215,-0.635376
216,0.216,-0.571442
217,0.217,-0.610657
218,0.218,-0.630951
219,0.219,-0.640259
220,0.22,-0.661621
221,0.221,-0.702515
222,0.222,-0.681763
223,0.223,-0.716248
224,0.224,-0.73822
225,0.225,-0.702057
226,0.226,-0.746613
227,0.227,-0.738525
228,0.228,-0.806885
229,0.229,-0.809326
230,0.23,-0.794373
231,0.231,-0.838318
232,0.232,-0.836945
233,0.233,-0.920563
234,0.234,-0.944672
235,0.23500000000000001,-0.942841
236,0.23600000000000002,-0.940552
237,0.23700000000000002,-0.980835
238,0.23800000000000002,-0.968018
239,0.23900000000000002,-1.00647
240,0.24,-0.970459
241,0.241,-0.978546
242,0.242,-0.946198
243,0.243,-0.957031
244,0.244,-0.986328
245,0.245,-1.008148
246,0.246,-1.05423
247,0.247,-1.019592
248,0.248,-1.04599
249,0.249,-1.029053
250,0.25,-1.016693
251,0.251,-1.022186
252,0.252,-1.032867
253,0.253,-0.997925
254,0.254,-1.073914
255,0.255,-1.05545
256,0.256,-1.078033
257,0.257,-1.035156
258,0.258,-0.996704
259,0.259,-1.0112
260,0.26,-0.985565
261,0.261,-1.021576
262,0.262,-1.005554
263,0.263,-1.00235
264,0.264,-1.054993
265,0.265,-1.090088
266,0.266,-1.060944
267,0.267,-1.043854
268,0.268,-1.059113
269,0.269,-1.055145
270,0.27,-1.058044
271,0.271,-1.020508
272,0.272,-1.034393
273,0.273,-1.059113
274,0.274,-1.044312
275,0.275,-1.075134
276,0.276,-1.092224
277,0.277,-1.053925
278,0.278,-1.042633
279,0.279,-1.028137
280,0.28,-1.047668
281,0.281,-1.04187
282,0.28200000000000003,-0.974121
283,0.28300000000000003,-1.003418
284,0.28400000000000003,-1.006165
285,0.28500000000000003,-1.067352
286,0.28600000000000003,-1.055145
287,0.28700000000000003,-1.021118
288,0.28800000000000003,-1.029816
289,0.289,-1.020355
290,0.29,-1.036072
291,0.291,-1.016235
292,0.292,-1.040497
293,0.293,-1.047211
294,0.294,-1.021881
295,0.295,-0.933075
296,0.296,-0.851898
297,0.297,-0.904388
298,0.298,-0.884857
299,0.299,-0.857086
300,0.3,-0.831757
301,0.301,-0.777588
302,0.302,-0.726624
303,0.303,-0.611877
304,0.304,-0.572052
305,0.305,-0.530243
306,0.306,-0.538177
307,0.307,-0.497284
308,0.308,-0.426636
309,0.309,-0.372925
310,0.31,-0.331879
311,0.311,-0.243073
312,0.312,-0.071259
313,0.313,-0.021362
314,0.314,0.116577
315,0.315,0.275421
316,0.316,0.424957
317,0.317,0.602722
318,0.318,0.810852
319,0.319,1.081238
320,0.32,1.309662
321,0.321,1.586914
322,0.322,1.791534
323,0.323,1.973572
324,0.324,2.14798
325,0.325,2.336426
326,0.326,2.540588
327,0.327,2.644653
328,0.328,2.653656
329,0.329,2.643738
330,0.33,2.64801
331,0.331,2.312012
332,0.332,1.776581
333,0.333,1.392059
334,0.334,0.918884
335,0.335,0.584564
336,0.336,0.30838
337,0.337,0.074615
338,0.338,-0.146332
339,0.339,-0.319366
340,0.34,-0.447235
341,0.341,-0.466003
342,0.342,-0.42984
343,0.343,-0.444336
344,0.34400000000000003,-0.455627
345,0.34500000000000003,-0.489349
346,0.34600000000000003,-0.555878
347,0.34700000000000003,-0.655975
348,0.34800000000000003,-0.744324
349,0.34900000000000003,-0.82489
350,0.35000000000000003,-0.908356
351,0.35100000000000003,-0.938416
352,0.352,-1.026154
353,0.353,-1.13327
354,0.354,-1.2146
355,0.355,-1.233673
356,0.356,-1.196747
357,0.357,-1.243439
358,0.358,-1.2883
359,0.359,-1.277313
360,0.36,-1.234894
361,0.361,-1.168976
362,0.362,-1.168976
363,0.363,-1.118469
364,0.364,-1.146393
365,0.365,-1.158295
366,0.366,-1.139526
367,0.367,-1.021271
368,0.368,-0.98587
369,0.369,-0.999908
370,0.37,-0.926819
371,0.371,-0.972595
372,0.372,-0.893097
373,0.373,-0.928192
374,0.374,-0.930786
375,0.375,-0.92514
376,0.376,-0.911407
377,0.377,-0.912628
378,0.378,-0.942841
379,0.379,-0.944214
380,0.38,-0.923004
381,0.381,-0.884094
382,0.382,-0.926361
383,0.383,-0.984497
384,0.384,-0.951996
385,0.385,-0.92392
386,0.386,-0.929718
387,0.387,-0.936127
388,0.388,-0.954437
389,0.389,-0.956879
390,0.39,-0.990295
391,0.391,-0.971375
392,0.392,-0.962219
393,0.393,-0.968323
394,0.394,-0.966492
395,0.395,-0.915375
396,0.396,-0.932007
397,0.397,-0.956879
398,0.398,-0.959015
399,0.399,-0.909576
400,0.4,-0.885773
401,0.401,-0.873718
402,0.402,-0.898895
403,0.403,-0.913544
404,0.404,-0.918884
405,0.405,-0.950165
406,0.406,-0.903931
407,0.40700000000000003,-0.889893
408,0.40800000000000003,-0.90332
409,0.40900000000000003,-0.884094
410,0.41000000000000003,-0.876312
411,0.41100000000000003,-0.889893
412,0.41200000000000003,-0.897369
413,0.41300000000000003,-0.914917
414,0.41400000000000003,-0.897217
415,0.41500000000000004,-0.934448
416,0.41600000000000004,-0.870819
417,0.417,-0.818024
418,0.418,-0.804749
419,0.419,-0.823517
420,0.42,-0.796967
421,0.421,-0.813751
422,0.422,-0.847931
423,0.423,-0.845795
424,0.424,-0.85083
425,0.425,-0.852203
426,0.426,-0.866547
427,0.427,-0.827789
428,0.428,-0.839386
429,0.429,-0.843658
430,0.43,-0.88562
431,0.431,-0.891876
432,0.432,-0.87616
433,0.433,-0.864868
434,0.434,-0.864716
435,0.435,-0.875549
436,0.436,-0.878754
437,0.437,-0.85968
438,0.438,-0.876923
439,0.439,-0.834198
440,0.44,-0.794373
441,0.441,-0.816193
442,0.442,-0.812073
443,0.443,-0.768585
444,0.444,-0.792084
445,0.445,-0.825958
446,0.446,-0.798798
447,0.447,-0.771027
448,0.448,-0.782928
449,0.449,-0.795288
450,0.45,-0.814667
451,0.451,-0.820618
452,0.452,-0.821381
453,0.453,-0.828247
454,0.454,-0.839233
455,0.455,-0.795593
456,0.456,-0.780792
457,0.457,-0.769043
458,0.458,-0.778503
459,0.459,-0.727692
460,0.46,-0.789337
461,0.461,-0.797119
462,0.462,-0.752106
463,0.463,-0.749207
464,0.464,-0.793762
465,0.465,-0.783997
466,0.466,-0.821686
467,0.467,-0.791626
468,0.468,-0.79071
469,0.46900000000000003,-0.780792
470,0.47000000000000003,-0.791779
471,0.47100000000000003,-0.800018
472,0.47200000000000003,-0.779877
473,0.47300000000000003,-0.752716
474,0.47400000000000003,-0.802155
475,0.47500000000000003,-0.764771
476,0.47600000000000003,-0.760193
477,0.47700000000000004,-0.760956
478,0.47800000000000004,-0.765381
479,0.47900000000000004,-0.774536
480,0.48,-0.82077
481,0.481,-0.826874
482,0.482,-0.779572
483,0.483,-0.744171
484,0.484,-0.756073
485,0.485,-0.742798
486,0.486,-0.707245
487,0.487,-0.68924
488,0.488,-0.700989
489,0.489,-0.743103
490,0.49,-0.725098
491,0.491,-0.683441
492,0.492,-0.713501
493,0.493,-0.719757
494,0.494,-0.673065
495,0.495,-0.675659
496,0.496,-0.705414
497,0.497,-0.73288
498,0.498,-0.750732
499,0.499,-0.703125
500,0.5,-0.693359
501,0.501,-0.694885
502,0.502,-0.733948
503,0.503,-0.732269
504,0.504,-0.694733
505,0.505,-0.652466
506,0.506,-0.623016
507,0.507,-0.614166
508,0.508,-0.641174
509,0.509,-0.620422
510,0.51,-0.62027
511,0.511,-0.612946
512,0.512,-0.61142
513,0.513,-0.599213
514,0.514,-0.608368
515,0.515,-0.57663
516,0.516,-0.537109
517,0.517,-0.570068
518,0.518,-0.526733
519,0.519,-0.540619
520,0.52,-0.490265
521,0.521,-0.464172
522,0.522,-0.456696
523,0.523,-0.428619
524,0.524,-0.45639
525,0.525,-0.467377
526,0.526,-0.418854
527,0.527,-0.402985
528,0.528,-0.408783
529,0.529,-0.421753
530,0.53,-0.420837
531,0.531,-0.403137
532,0.532,-0.362396
533,0.533,-0.36377
534,0.534,-0.335541
535,0.535,-0.30426
536,0.536,-0.283813
537,0.537,-0.343628
538,0.538,-0.305328
539,0.539,-0.310974
540,0.54,-0.238953
541,0.541,-0.246124
542,0.542,-0.278168
543,0.543,-0.245209
544,0.544,-0.221252
545,0.545,-0.228729
546,0.546,-0.207214
547,0.547,-0.171509
548,0.548,-0.245819
549,0.549,-0.247192
550,0.55,-0.228577
551,0.551,-0.233917
552,0.552,-0.271149
553,0.553,-0.266876
554,0.554,-0.222015
555,0.555,-0.19928
556,0.556,-0.209961
557,0.557,-0.171051
558,0.558,-0.162659
559,0.559,-0.118103
560,0.56,-0.16098
561,0.561,-0.142365
562,0.562,-0.112305
563,0.5630000000000001,-0.077209
564,0.5640000000000001,-0.062714
565,0.5650000000000001,-0.019836
566,0.5660000000000001,-0.06012
567,0.5670000000000001,-0.068817
568,0.5680000000000001,-0.077362
569,0.5690000000000001,-0.075989
570,0.5700000000000001,-0.06424
571,0.5710000000000001,-0.034027
572,0.5720000000000001,-0.025024
573,0.5730000000000001,-0.055695
574,0.5740000000000001,-0.088806
575,0.5750000000000001,-0.051575
576,0.5760000000000001,-0.034027
577,0.577,-0.029755
578,0.578,-0.023346
579,0.579,-0.041656
580,0.58,-0.052338
581,0.581,-0.081329
582,0.582,-0.103302
583,0.583,-0.120697
584,0.584,-0.137787
585,0.585,-0.194397
586,0.586,-0.186768
587,0.587,-0.163574
588,0.588,-0.189819
589,0.589,-0.178833
590,0.59,-0.190125
591,0.591,-0.190125
592,0.592,-0.182343
593,0.593,-0.223999
594,0.594,-0.276489
595,0.595,-0.277252
596,0.596,-0.303192
597,0.597,-0.325623
598,0.598,-0.358734
599,0.599,-0.393677
600,0.6,-0.402069
601,0.601,-0.427246
602,0.602,-0.461578
603,0.603,-0.483551
604,0.604,-0.514984
605,0.605,-0.5336
606,0.606,-0.550385
607,0.607,-0.531616
608,0.608,-0.561066
609,0.609,-0.606537
610,0.61,-0.639038
611,0.611,-0.682373
612,0.612,-0.658875
613,0.613,-0.684509
614,0.614,-0.674286
615,0.615,-0.657349
616,0.616,-0.722656
617,0.617,-0.743408
618,0.618,-0.723724
619,0.619,-0.757599
620,0.62,-0.738831
621,0.621,-0.733795
622,0.622,-0.747223
623,0.623,-0.784149
624,0.624,-0.826416
625,0.625,-0.866241
626,0.626,-0.844727
627,0.627,-0.873108
628,0.628,-0.900269
629,0.629,-0.933685
630,0.63,-0.93277
631,0.631,-0.913849
632,0.632,-0.949097
633,0.633,-0.961456
634,0.634,-0.960999
635,0.635,-0.965271
636,0.636,-0.974426
637,0.637,-0.960083
638,0.638,-0.965881
639,0.639,-0.981293
640,0.64,-0.964508
641,0.641,-0.967712
642,0.642,-0.95871
643,0.643,-0.930481
644,0.644,-0.962524
645,0.645,-0.962372
646,0.646,-0.951691
647,0.647,-0.97641
648,0.648,-1.015015
649,0.649,-1.011963
650,0.65,-1.044312
651,0.651,-1.019897
652,0.652,-1.025085
653,0.653,-1.014557
654,0.654,-1.029968
655,0.655,-1.036377
656,0.656,-1.031799
657,0.657,-1.024017
658,0.658,-1.061401
659,0.659,-1.044464
660,0.66,-1.058502
661,0.661,-1.076813
662,0.662,-1.088715
663,0.663,-1.121216
664,0.664,-1.073608
665,0.665,-1.074677
666,0.666,-1.043243
667,0.667,-1.057892
668,0.668,-1.086426
669,0.669,-1.113739
670,0.67,-1.063385
671,0.671,-1.070099
672,0.672,-1.051483
673,0.673,-1.041107
674,0.674,-1.079102
675,0.675,-1.035309
676,0.676,-1.015015
677,0.677,-1.02005
678,0.678,-1.045074
679,0.679,-1.092072
680,0.68,-1.107483
681,0.681,-1.098633
682,0.682,-1.09314
683,0.683,-1.09848
684,0.684,-1.098938
685,0.685,-1.081543
686,0.686,-1.132202
687,0.687,-1.100922
688,0.6880000000000001,-1.113281
689,0.6890000000000001,-1.113434
690,0.6900000000000001,-1.089325
691,0.6910000000000001,-1.121674
692,0.6920000000000001,-1.087799
693,0.6930000000000001,-1.069336
694,0.6940000000000001,-1.124573
695,0.6950000000000001,-1.090851
696,0.6960000000000001,-1.060638
697,0.6970000000000001,-1.06842
698,0.6980000000000001,-1.061707
699,0.6990000000000001,-1.083832
700,0.7000000000000001,-1.089935
701,0.7010000000000001,-1.107178
702,0.7020000000000001,-1.078339
703,0.7030000000000001,-1.087646
704,0.704,-1.113434
705,0.705,-1.099243
706,0.706,-1.102295
707,0.707,-1.0672
708,0.708,-1.086121
709,0.709,-1.111603
710,0.71,-1.101379
711,0.711,-1.085205
712,0.712,-1.058044
713,0.713,-1.026001
714,0.714,-1.041718
715,0.715,-1.050262
716,0.716,-1.08017
717,0.717,-1.087036
718,0.718,-1.048889
719,0.719,-1.027222
720,0.72,-1.062622
721,0.721,-1.081848
722,0.722,-1.022797
723,0.723,-1.009369
724,0.724,-1.043396
725,0.725,-1.064148
726,0.726,-1.099243
727,0.727,-1.108856
728,0.728,-1.108551
729,0.729,-1.079407
730,0.73,-1.060638
731,0.731,-1.026917
732,0.732,-1.079712
733,0.733,-1.099548
734,0.734,-1.080017
735,0.735,-1.050873
736,0.736,-1.091614
737,0.737,-1.085205
738,0.738,-1.082153
739,0.739,-1.049194
740,0.74,-1.078033
741,0.741,-1.058807
742,0.742,-1.077728
743,0.743,-1.070557
744,0.744,-0.999603
745,0.745,-1.024017
746,0.746,-0.954895
747,0.747,-0.978851
748,0.748,-1.003571
749,0.749,-1.047516
750,0.75,-1.048279
751,0.751,-1.000061
752,0.752,-0.985413
753,0.753,-0.89798
754,0.754,-0.881805
755,0.755,-0.914307
756,0.756,-0.942535
757,0.757,-0.943604
758,0.758,-0.989075
759,0.759,-0.999298
760,0.76,-1.034698
761,0.761,-1.055145
762,0.762,-1.087341
763,0.763,-1.087494
764,0.764,-1.147919
765,0.765,-1.135254
766,0.766,-1.121674
767,0.767,-1.106567
768,0.768,-1.10321
769,0.769,-1.115112
770,0.77,-1.137238
771,0.771,-1.188507
772,0.772,-1.165009
773,0.773,-1.134186
774,0.774,-1.182861
775,0.775,-1.10733
776,0.776,-1.104126
777,0.777,-1.127167
778,0.778,-1.102142
779,0.779,-1.082764
780,0.78,-1.087036
781,0.781,-1.081696
782,0.782,-1.061401
783,0.783,-1.119995
784,0.784,-1.113586
785,0.785,-1.126709
786,0.786,-1.108093
787,0.787,-1.124115
788,0.788,-1.119232
789,0.789,-1.138916
790,0.79,-1.065063
791,0.791,-1.100311
792,0.792,-1.118317
793,0.793,-1.111755
794,0.794,-1.083374
795,0.795,-1.106567
796,0.796,-1.161346
797,0.797,-1.138458
798,0.798,-1.154938
799,0.799,-1.169586
800,0.8,-1.140289
801,0.801,-1.099548
802,0.802,-1.11908
803,0.803,-1.144409
804,0.804,-1.120758
805,0.805,-1.116333
806,0.806,-1.109009
807,0.807,-1.146393
808,0.808,-1.113586
809,0.809,-1.084595
810,0.81,-1.056061
811,0.811,-1.053467
812,0.812,-1.061249
813,0.8130000000000001,-1.068878
814,0.8140000000000001,-1.077423
815,0.8150000000000001,-1.089783
816,0.8160000000000001,-1.085968
817,0.8170000000000001,-1.099548
818,0.8180000000000001,-1.102753
819,0.8190000000000001,-1.123505
820,0.8200000000000001,-1.137695
821,0.8210000000000001,-1.114044
822,0.8220000000000001,-1.11969
823,0.8230000000000001,-1.094208
824,0.8240000000000001,-1.127319
825,0.8250000000000001,-1.124573
826,0.8260000000000001,-1.140137
827,0.8270000000000001,-1.129913
828,0.8280000000000001,-1.062927
829,0.8290000000000001,-1.066742
830,0.8300000000000001,-1.075592
831,0.8310000000000001,-1.141663
832,0.8320000000000001,-1.134796
833,0.833,-1.177673
834,0.834,-1.142273
835,0.835,-1.118469
836,0.836,-1.121674
837,0.837,-1.089478
838,0.838,-1.09436
839,0.839,-1.026306
840,0.84,-1.070862
841,0.841,-1.10321
842,0.842,-1.164093
843,0.843,-1.177216
844,0.844,-1.14563
845,0.845,-1.100922
846,0.846,-1.080933
847,0.847,-1.078186
848,0.848,-1.075287
849,0.849,-1.082764
850,0.85,-1.10672
851,0.851,-1.105042
852,0.852,-1.085968
853,0.853,-1.110535
854,0.854,-1.073151
855,0.855,-1.078491
856,0.856,-1.100769
857,0.857,-1.10611
858,0.858,-1.170349
859,0.859,-1.125031
860,0.86,-1.118317
861,0.861,-1.115417
862,0.862,-1.128235
863,0.863,-1.192169
864,0.864,-1.21994
865,0.865,-1.169586
866,0.866,-1.173706
867,0.867,-1.183319
868,0.868,-1.183472
869,0.869,-1.217651
870,0.87,-1.191864
871,0.871,-1.224976
872,0.872,-1.213989
873,0.873,-1.200714
874,0.874,-1.165009
875,0.875,-1.210785
876,0.876,-1.199951
877,0.877,-1.177673
878,0.878,-1.198425
879,0.879,-1.174316
880,0.88,-1.179962
881,0.881,-1.16806
882,0.882,-1.192474
883,0.883,-1.20575
884,0.884,-1.181641
885,0.885,-1.196594
886,0.886,-1.207123
887,0.887,-1.221924
888,0.888,-1.219025
889,0.889,-1.219177
890,0.89,-1.137695
891,0.891,-1.147308
892,0.892,-1.159668
893,0.893,-1.149902
894,0.894,-1.172943
895,0.895,-1.179352
896,0.896,-1.217194
897,0.897,-1.1763
898,0.898,-1.205597
899,0.899,-1.213074
900,0.9,-1.214447
901,0.901,-1.18576
902,0.902,-1.205902
903,0.903,-1.198578
904,0.904,-1.22406
905,0.905,-1.220703
906,0.906,-1.19278
907,0.907,-1.19339
908,0.908,-1.204224
909,0.909,-1.184387
910,0.91,-1.239624
911,0.911,-1.21933
912,0.912,-1.243896
913,0.913,-1.235809
914,0.914,-1.269073
915,0.915,-1.261902
916,0.916,-1.216278
917,0.917,-1.204834
918,0.918,-1.220551
919,0.919,-1.205444
920,0.92,-1.201935
921,0.921,-1.223602
922,0.922,-1.250458
923,0.923,-1.184387
924,0.924,-1.140289
925,0.925,-1.167145
926,0.926,-1.192932
927,0.927,-1.186066
928,0.928,-1.191254
929,0.929,-1.172791
930,0.93,-1.207733
931,0.931,-1.242218
932,0.932,-1.183167
933,0.933,-1.20575
934,0.934,-1.222076
935,0.935,-1.218262
936,0.936,-1.224823
937,0.937,-1.267548
938,0.9380000000000001,-1.19812
939,0.9390000000000001,-1.233978
940,0.9400000000000001,-1.22879
941,0.9410000000000001,-1.228943
942,0.9420000000000001,-1.225433
943,0.9430000000000001,-1.256409
944,0.9440000000000001,-1.239929
945,0.9450000000000001,-1.203613
946,0.9460000000000001,-1.222992
947,0.9470000000000001,-1.242065
948,0.9480000000000001,-1.201935
949,0.9490000000000001,-1.210632
950,0.9500000000000001,-1.234283
951,0.9510000000000001,-1.244049
952,0.9520000000000001,-1.218872
953,0.9530000000000001,-1.226959
954,0.9540000000000001,-1.205597
955,0.9550000000000001,-1.223907
956,0.9560000000000001,-1.238861
957,0.9570000000000001,-1.220245
958,0.9580000000000001,-1.199646
959,0.9590000000000001,-1.259766
960,0.96,-1.278839
961,0.961,-1.263885
962,0.962,-1.263885
963,0.963,-1.23764
964,0.964,-1.243286
965,0.965,-1.247101
966,0.966,-1.259003
967,0.967,-1.221619
968,0.968,-1.199646
969,0.969,-1.195679
970,0.97,-1.229858
971,0.971,-1.231232
972,0.972,-1.205292
973,0.973,-1.234436
974,0.974,-1.266937
975,0.975,-1.28067
976,0.976,-1.210022
977,0.977,-1.252289
978,0.978,-1.238861
979,0.979,-1.23291
980,0.98,-1.225128
981,0.981,-1.300964
982,0.982,-1.290436
983,0.983,-1.237946
984,0.984,-1.231232
985,0.985,-1.24588
986,0.986,-1.297913
987,0.987,-1.309814
988,0.988,-1.275787
989,0.989,-1.264038
990,0.99,-1.228027
991,0.991,-1.228027
992,0.992,-1.261597
993,0.993,-1.237793
994,0.994,-1.242981
995,0.995,-1.278381
996,0.996,-1.26358
997,0.997,-1.301727
998,0.998,-1.298828
999,0.999,-1.269531
1000,1.0,-1.292419
1001,1.0010000000000001,-1.222076
1002,1.002,-1.24115
1003,1.0030000000000001,-1.278839
1004,1.004,-1.271515
1005,1.0050000000000001,-1.279144
1006,1.006,-1.231079
1007,1.0070000000000001,-1.203156
1008,1.008,-1.245117
1009,1.0090000000000001,-1.242523
1010,1.01,-1.223297
1011,1.0110000000000001,-1.217194
1012,1.012,-1.236572
1013,1.0130000000000001,-1.223907
1014,1.014,-1.229553
1015,1.0150000000000001,-1.271515
1016,1.016,-1.296387
1017,1.0170000000000001,-1.246643
1018,1.018,-1.334534
1019,1.0190000000000001,-1.273956
1020,1.02,-1.270905
1021,1.0210000000000001,-1.226959
1022,1.022,-1.264648
1023,1.0230000000000001,-1.265411
1024,1.024,-1.242218
1025,1.025,-1.291656
1026,1.026,-1.292114
1027,1.027,-1.255188
1028,1.028,-1.236267
1029,1.029,-1.261597
1030,1.03,-1.224365
1031,1.031,-1.237335
1032,1.032,-1.294861
1033,1.033,-1.309662
1034,1.034,-1.235962
1035,1.035,-1.252289
1036,1.036,-1.284943
1037,1.037,-1.228638
1038,1.038,-1.229706
1039,1.039,-1.252594
1040,1.04,-1.221313
1041,1.041,-1.218414
1042,1.042,-1.216431
1043,1.043,-1.20636
1044,1.044,-1.221161
1045,1.045,-1.251068
1046,1.046,-1.217194
1047,1.047,-1.278839
1048,1.048,-1.246033
1049,1.049,-1.21521
1050,1.05,-1.192627
1051,1.051,-1.28891
1052,1.052,-1.255646
1053,1.053,-1.259003
1054,1.054,-1.273499
1055,1.055,-1.212463
1056,1.056,-1.197815
1057,1.057,-1.239929
1058,1.058,-1.263733
1059,1.059,-1.262512
1060,1.06,-1.248779
1061,1.061,-1.234131
1062,1.062,-1.277618
1063,1.063,-1.253357
1064,1.064,-1.301422
1065,1.065,-1.314697
1066,1.066,-1.233826
1067,1.067,-1.210632
1068,1.068,-1.180267
1069,1.069,-1.264496
1070,1.07,-1.290588
1071,1.071,-1.23642
1072,1.072,-1.263885
1073,1.073,-1.26236
1074,1.074,-1.254272
1075,1.075,-1.254578
1076,1.076,-1.253662
1077,1.077,-1.253967
1078,1.078,-1.273651
1079,1.079,-1.265259
1080,1.08,-1.307526
1081,1.081,-1.27594
1082,1.082,-1.237488
1083,1.083,-1.237946
1084,1.084,-1.273651
1085,1.085,-1.281433
1086,1.086,-1.280975
1087,1.087,-1.270294
1088,1.088,-1.287842
1089,1.089,-1.270294
1090,1.09,-1.255798
1091,1.091,-1.291962
1092,1.092,-1.308136
1093,1.093,-1.2323
1094,1.094,-1.254578
1095,1.095,-1.225586
1096,1.096,-1.290894
1097,1.097,-1.244049
1098,1.098,-1.294403
1099,1.099,-1.247253
1100,1.1,-1.228943
1101,1.101,-1.230927
1102,1.102,-1.165924
1103,1.103,-1.205292
1104,1.104,-1.180725
1105,1.105,-1.157684
1106,1.106,-1.153564
1107,1.107,-1.156769
1108,1.108,-1.138916
1109,1.109,-1.13266
1110,1.11,-1.111908
1111,1.111,-1.154327
1112,1.112,-1.132355
1113,1.113,-1.099701
1114,1.114,-1.124268
1115,1.115,-1.125336
1116,1.116,-1.109772
1117,1.117,-1.110229
1118,1.118,-1.108856
1119,1.119,-1.053619
1120,1.12,-1.027527
1121,1.121,-1.026459
1122,1.122,-1.013336
1123,1.123,-0.970306
1124,1.124,-0.936432
1125,1.125,-0.941925
1126,1.1260000000000001,-0.940704
1127,1.127,-0.923462
1128,1.1280000000000001,-0.908051
1129,1.129,-0.919189
1130,1.1300000000000001,-0.9198
1131,1.131,-0.905914
1132,1.1320000000000001,-0.896454
1133,1.133,-0.908813
1134,1.1340000000000001,-0.87204
1135,1.135,-0.89859
1136,1.1360000000000001,-0.910492
1137,1.137,-0.875244
1138,1.1380000000000001,-0.894775
1139,1.139,-0.877838
1140,1.1400000000000001,-0.862732
1141,1.141,-0.896301
1142,1.1420000000000001,-0.91507
1143,1.143,-0.905304
1144,1.1440000000000001,-0.910492
1145,1.145,-0.870514
1146,1.1460000000000001,-0.915833
1147,1.147,-0.882111
1148,1.1480000000000001,-0.903778
1149,1.149,-0.941772
1150,1.1500000000000001,-0.947266
1151,1.151,-0.942688
1152,1.1520000000000001,-0.984192
1153,1.153,-0.931549
1154,1.154,-0.922699
1155,1.155,-0.923309
1156,1.156,-0.965118
1157,1.157,-0.979004
1158,1.158,-0.961151
1159,1.159,-0.955505
1160,1.16,-0.941772
1161,1.161,-1.005554
1162,1.162,-1.017761
1163,1.163,-0.996857
1164,1.164,-1.018982
1165,1.165,-1.012421
1166,1.166,-1.027069
1167,1.167,-1.008453
1168,1.168,-1.021271
1169,1.169,-1.041718
1170,1.17,-1.077576
1171,1.171,-1.073761
1172,1.172,-1.068268
1173,1.173,-1.133423
1174,1.174,-1.092682
1175,1.175,-1.147461
1176,1.176,-1.176758
1177,1.177,-1.176147
1178,1.178,-1.169281
1179,1.179,-1.209412
1180,1.18,-1.203613
1181,1.181,-1.257324
1182,1.182,-1.283264
1183,1.183,-1.282196
1184,1.184,-1.317291
1185,1.185,-1.293793
1186,1.186,-1.290894
1187,1.187,-1.378937
1188,1.188,-1.351929
1189,1.189,-1.382294
1190,1.19,-1.400452
1191,1.191,-1.401978
1192,1.192,-1.422577
1193,1.193,-1.443024
1194,1.194,-1.412048
1195,1.195,-1.37558
1196,1.196,-1.394043
1197,1.197,-1.44989
1198,1.198,-1.444244
1199,1.199,-1.472321
1200,1.2,-1.43692
1201,1.201,-1.411285
1202,1.202,-1.446686
1203,1.203,-1.382446
1204,1.204,-1.384888
1205,1.205,-1.373749
1206,1.206,-1.379089
1207,1.207,-1.40625
1208,1.208,-1.390991
1209,1.209,-1.414032
1210,1.21,-1.435699
1211,1.211,-1.403503
1212,1.212,-1.40213
1213,1.213,-1.423035
1214,1.214,-1.471252
1215,1.215,-1.51123
1216,1.216,-1.455536
1217,1.217,-1.486816
1218,1.218,-1.439056
1219,1.219,-1.461639
1220,1.22,-1.460266
1221,1.221,-1.490173
1222,1.222,-1.437836
1223,1.223,-1.393738
1224,1.224,-1.379089
1225,1.225,-1.354523
1226,1.226,-1.376495
1227,1.227,-1.354218
1228,1.228,-1.385651
1229,1.229,-1.403351
1230,1.23,-1.388092
1231,1.231,-1.398315
1232,1.232,-1.442719
1233,1.233,-1.40213
1234,1.234,-1.430359
1235,1.235,-1.414948
1236,1.236,-1.424408
1237,1.237,-1.432343
1238,1.238,-1.397705
1239,1.239,-1.414032
1240,1.24,-1.403656
1241,1.241,-1.323395
1242,1.242,-1.321259
1243,1.243,-1.307831
1244,1.244,-1.280975
1245,1.245,-1.29715
1246,1.246,-1.284943
1247,1.247,-1.211395
1248,1.248,-1.218109
1249,1.249,-1.181946
1250,1.25,-1.080475
1251,1.2510000000000001,-1.011963
1252,1.252,-0.947876
1253,1.2530000000000001,-0.926819
1254,1.254,-0.916901
1255,1.2550000000000001,-0.862732
1256,1.256,-0.796204
1257,1.2570000000000001,-0.750732
1258,1.258,-0.663147
1259,1.2590000000000001,-0.61264
1260,1.26,-0.456085
1261,1.2610000000000001,-0.368805
1262,1.262,-0.159149
1263,1.2630000000000001,-0.058594
1264,1.264,0.084686
1265,1.2650000000000001,0.268097
1266,1.266,0.51712
1267,1.2670000000000001,0.738525
1268,1.268,1.012573
1269,1.2690000000000001,1.173553
1270,1.27,1.378021
1271,1.2710000000000001,1.588898
1272,1.272,1.775818
1273,1.2730000000000001,2.015686
1274,1.274,2.195129
1275,1.2750000000000001,2.409058
1276,1.276,2.452545
1277,1.2770000000000001,2.371216
1278,1.278,2.248383
1279,1.2790000000000001,1.849976
1280,1.28,1.329193
1281,1.281,0.91629
1282,1.282,0.518951
1283,1.283,0.203705
1284,1.284,-0.11673
1285,1.285,-0.315704
1286,1.286,-0.527649
1287,1.287,-0.696869
1288,1.288,-0.785675
1289,1.289,-0.794373
1290,1.29,-0.786285
1291,1.291,-0.794525
1292,1.292,-0.876312
1293,1.293,-0.979156
1294,1.294,-1.040039
1295,1.295,-1.13678
1296,1.296,-1.221008
1297,1.297,-1.3414
1298,1.298,-1.407776
1299,1.299,-1.485138
1300,1.3,-1.539459
1301,1.301,-1.640472
1302,1.302,-1.678162
1303,1.303,-1.74881
1304,1.304,-1.736603
1305,1.305,-1.688538
1306,1.306,-1.707458
1307,1.307,-1.699066
1308,1.308,-1.630859
1309,1.309,-1.577759
1310,1.31,-1.623535
1311,1.311,-1.575775
1312,1.312,-1.624298
1313,1.313,-1.520386
1314,1.314,-1.443787
1315,1.315,-1.400299
1316,1.316,-1.453247
1317,1.317,-1.399231
1318,1.318,-1.377411
1319,1.319,-1.360016
1320,1.32,-1.320343
1321,1.321,-1.334991
1322,1.322,-1.318665
1323,1.323,-1.329803
1324,1.324,-1.319885
1325,1.325,-1.334076
1326,1.326,-1.463623
1327,1.327,-1.431122
1328,1.328,-1.422577
1329,1.329,-1.358948
1330,1.33,-1.436157
1331,1.331,-1.418915
1332,1.332,-1.453705
1333,1.333,-1.339417
1334,1.334,-1.338501
1335,1.335,-1.32843
1336,1.336,-1.402588
1337,1.337,-1.426849
1338,1.338,-1.386414
1339,1.339,-1.326904
1340,1.34,-1.360321
1341,1.341,-1.363831
1342,1.342,-1.343231
1343,1.343,-1.418915
1344,1.344,-1.372833
1345,1.345,-1.422729
1346,1.346,-1.408691
1347,1.347,-1.369171
1348,1.348,-1.434631
1349,1.349,-1.373138
1350,1.35,-1.377563
1351,1.351,-1.402283
1352,1.352,-1.396942
1353,1.353,-1.336823
1354,1.354,-1.364899
1355,1.355,-1.410522
1356,1.356,-1.358032
1357,1.357,-1.351013
1358,1.358,-1.35849
1359,1.359,-1.313477
1360,1.36,-1.295624
1361,1.361,-1.374359
1362,1.362,-1.374817
1363,1.363,-1.423187
1364,1.364,-1.372986
1365,1.365,-1.314392
1366,1.366,-1.369019
1367,1.367,-1.354828
1368,1.368,-1.295471
1369,1.369,-1.340027
1370,1.37,-1.349487
1371,1.371,-1.286774
1372,1.372,-1.302338
1373,1.373,-1.322479
1374,1.374,-1.321411
1375,1.375,-1.329346
1376,1.3760000000000001,-1.40274
1377,1.377,-1.375275
1378,1.3780000000000001,-1.299286
1379,1.379,-1.350555
1380,1.3800000000000001,-1.373138
1381,1.381,-1.305847
1382,1.3820000000000001,-1.337128
1383,1.383,-1.408844
1384,1.3840000000000001,-1.491089
1385,1.385,-1.400909
1386,1.3860000000000001,-1.35376
1387,1.387,-1.291656
1388,1.3880000000000001,-1.214142
1389,1.389,-1.204681
1390,1.3900000000000001,-1.257019
1391,1.391,-1.316681
1392,1.3920000000000001,-1.300201
1393,1.393,-1.272888
1394,1.3940000000000001,-1.329041
1395,1.395,-1.246796
1396,1.3960000000000001,-1.283569
1397,1.397,-1.279297
1398,1.3980000000000001,-1.32431
1399,1.399,-1.332245
1400,1.4000000000000001,-1.297913
1401,1.401,-1.278534
1402,1.4020000000000001,-1.314087
1403,1.403,-1.295471
1404,1.4040000000000001,-1.315155
1405,1.405,-1.298981
1406,1.4060000000000001,-1.338043
1407,1.407,-1.268616
1408,1.408,-1.290894
1409,1.409,-1.310272
1410,1.41,-1.357117
1411,1.411,-1.378784
1412,1.412,-1.282959
1413,1.413,-1.207733
1414,1.414,-1.319275
1415,1.415,-1.309509
1416,1.416,-1.352234
1417,1.417,-1.357574
1418,1.418,-1.231995
1419,1.419,-1.225586
1420,1.42,-1.254883
1421,1.421,-1.288757
1422,1.422,-1.207275
1423,1.423,-1.223145
1424,1.424,-1.280518
1425,1.425,-1.218262
1426,1.426,-1.271667
1427,1.427,-1.320801
1428,1.428,-1.264496
1429,1.429,-1.235046
1430,1.43,-1.152954
1431,1.431,-1.18988
1432,1.432,-1.182861
1433,1.433,-1.221008
1434,1.434,-1.343689
1435,1.435,-1.234131
1436,1.436,-1.101837
1437,1.437,-1.195526
1438,1.438,-1.293488
1439,1.439,-1.163483
1440,1.44,-1.109619
1441,1.441,-1.208344
1442,1.442,-1.181793
1443,1.443,-1.183319
1444,1.444,-1.119232
1445,1.445,-1.138916
1446,1.446,-1.112823
1447,1.447,-1.074829
1448,1.448,-1.055908
1449,1.449,-1.109467
1450,1.45,-1.155548
1451,1.451,-1.138763
1452,1.452,-1.097717
1453,1.453,-1.094513
1454,1.454,-1.050873
1455,1.455,-1.059418
1456,1.456,-1.025085
1457,1.457,-1.069183
1458,1.458,-1.09848
1459,1.459,-1.089325
1460,1.46,-1.129456
1461,1.461,-1.073608
1462,1.462,-1.040497
1463,1.463,-1.018066
1464,1.464,-1.067047
1465,1.465,-1.026001
1466,1.466,-1.009979
1467,1.467,-0.94635
1468,1.468,-0.960999
1469,1.469,-1.005096
1470,1.47,-1.011963
1471,1.471,-0.995636
1472,1.472,-0.902863
1473,1.473,-0.918579
1474,1.474,-0.865936
1475,1.475,-0.849304
1476,1.476,-0.859222
1477,1.477,-0.878143
1478,1.478,-0.888977
1479,1.479,-0.902863
1480,1.48,-0.876465
1481,1.481,-0.919495
1482,1.482,-0.8078
1483,1.483,-0.810394
1484,1.484,-0.760956
1485,1.485,-0.738831
1486,1.486,-0.787201
1487,1.487,-0.748596
1488,1.488,-0.729065
1489,1.489,-0.742187
1490,1.49,-0.730133
1491,1.491,-0.727539
1492,1.492,-0.676117
1493,1.493,-0.726318
1494,1.494,-0.704498
1495,1.495,-0.700684
1496,1.496,-0.69931
1497,1.497,-0.65979
1498,1.498,-0.688782
1499,1.499,-0.645905
1500,1.5,-0.66803
1501,1.5010000000000001,-0.692139
1502,1.502,-0.618896
1503,1.5030000000000001,-0.549316
1504,1.504,-0.609283
1505,1.5050000000000001,-0.612793
1506,1.506,-0.589142
1507,1.5070000000000001,-0.579071
1508,1.508,-0.553741
1509,1.5090000000000001,-0.569305
1510,1.51,-0.536499
1511,1.5110000000000001,-0.539551
1512,1.512,-0.492096
1513,1.5130000000000001,-0.522766
1514,1.514,-0.507965
1515,1.5150000000000001,-0.547638
1516,1.516,-0.533295
1517,1.5170000000000001,-0.471191
1518,1.518,-0.468445
1519,1.5190000000000001,-0.46051
1520,1.52,-0.492554
1521,1.5210000000000001,-0.437317
1522,1.522,-0.427094
1523,1.5230000000000001,-0.44632
1524,1.524,-0.477295
1525,1.5250000000000001,-0.430298
1526,1.526,-0.463104
1527,1.5270000000000001,-0.523071
1528,1.528,-0.496521
1529,1.5290000000000001,-0.511169
1530,1.53,-0.501862
1531,1.5310000000000001,-0.478821
1532,1.532,-0.52124
1533,1.5330000000000001,-0.499878
1534,1.534,-0.488129
1535,1.5350000000000001,-0.527039
1536,1.536,-0.517426
1537,1.537,-0.538635
1538,1.538,-0.559692
1539,1.539,-0.57251
1540,1.54,-0.626831
1541,1.541,-0.619202
1542,1.542,-0.671997
1543,1.543,-0.709076
1544,1.544,-0.704346
1545,1.545,-0.706177
1546,1.546,-0.707245
1547,1.547,-0.771637
1548,1.548,-0.768127
1549,1.549,-0.844574
1550,1.55,-0.808411
1551,1.551,-0.825653
1552,1.552,-0.843201
1553,1.553,-0.905457
1554,1.554,-0.912476
1555,1.555,-0.966034
1556,1.556,-0.95047
1557,1.557,-0.914764
1558,1.558,-0.924377
1559,1.559,-0.975952
1560,1.56,-0.951385
1561,1.561,-0.968628
1562,1.562,-1.025543
1563,1.563,-1.076202
1564,1.564,-1.130676
1565,1.565,-1.101837
1566,1.566,-1.119843
1567,1.567,-1.123199
1568,1.568,-1.103363
1569,1.569,-1.161346
1570,1.57,-1.156311
1571,1.571,-1.21521
1572,1.572,-1.244354
1573,1.573,-1.307068
1574,1.574,-1.274567
1575,1.575,-1.253815
1576,1.576,-1.304626
1577,1.577,-1.325531
1578,1.578,-1.309052
1579,1.579,-1.2677
1580,1.58,-1.374359
1581,1.581,-1.31073
1582,1.582,-1.369934
1583,1.583,-1.379089
1584,1.584,-1.37207
1585,1.585,-1.386108
1586,1.586,-1.383514
1587,1.587,-1.344757
1588,1.588,-1.381073
1589,1.589,-1.420135
1590,1.59,-1.398163
1591,1.591,-1.438141
1592,1.592,-1.449738
1593,1.593,-1.478119
1594,1.594,-1.392975
1595,1.595,-1.380615
1596,1.596,-1.372833
1597,1.597,-1.474609
1598,1.598,-1.466827
1599,1.599,-1.49765
1600,1.6,-1.46225
1601,1.601,-1.48468
1602,1.602,-1.455688
1603,1.603,-1.500854
1604,1.604,-1.479797
1605,1.605,-1.443176
1606,1.606,-1.435089
1607,1.607,-1.403198
1608,1.608,-1.481323
1609,1.609,-1.469421
1610,1.61,-1.460114
1611,1.611,-1.428833
1612,1.612,-1.473999
1613,1.613,-1.51825
1614,1.614,-1.439362
1615,1.615,-1.504517
1616,1.616,-1.470032
1617,1.617,-1.420593
1618,1.618,-1.506348
1619,1.619,-1.510468
1620,1.62,-1.477203
1621,1.621,-1.474304
1622,1.622,-1.435394
1623,1.623,-1.436005
1624,1.624,-1.419067
1625,1.625,-1.447906
1626,1.6260000000000001,-1.381378
1627,1.627,-1.415558
1628,1.6280000000000001,-1.408386
1629,1.629,-1.430359
1630,1.6300000000000001,-1.443939
1631,1.631,-1.446838
1632,1.6320000000000001,-1.455688
1633,1.633,-1.512451
1634,1.6340000000000001,-1.466064
1635,1.635,-1.4711
1636,1.6360000000000001,-1.504669
1637,1.637,-1.516418
1638,1.6380000000000001,-1.494141
1639,1.639,-1.474609
1640,1.6400000000000001,-1.417999
1641,1.641,-1.445312
1642,1.6420000000000001,-1.50116
1643,1.643,-1.493683
1644,1.6440000000000001,-1.471252
1645,1.645,-1.510315
1646,1.6460000000000001,-1.450348
1647,1.647,-1.478882
1648,1.6480000000000001,-1.51062
1649,1.649,-1.500092
1650,1.6500000000000001,-1.523437
1651,1.651,-1.487274
1652,1.6520000000000001,-1.495514
1653,1.653,-1.501465
1654,1.6540000000000001,-1.469269
1655,1.655,-1.542053
1656,1.6560000000000001,-1.487579
1657,1.657,-1.521149
1658,1.6580000000000001,-1.466064
1659,1.659,-1.489716
1660,1.6600000000000001,-1.519012
1661,1.661,-1.534271
1662,1.6620000000000001,-1.532288
1663,1.663,-1.531525
1664,1.6640000000000001,-1.507111
1665,1.665,-1.551361
1666,1.666,-1.476746
1667,1.667,-1.519775
1668,1.668,-1.487427
1669,1.669,-1.495056
1670,1.67,-1.47522
1671,1.671,-1.485138
1672,1.672,-1.514435
1673,1.673,-1.438141
1674,1.674,-1.452942
1675,1.675,-1.49292
1676,1.676,-1.444855
1677,1.677,-1.515808
1678,1.678,-1.501923
1679,1.679,-1.535797
1680,1.68,-1.531372
1681,1.681,-1.466522
1682,1.682,-1.435547
1683,1.683,-1.478577
1684,1.684,-1.507416
1685,1.685,-1.47934
1686,1.686,-1.535187
1687,1.687,-1.460876
1688,1.688,-1.460876
1689,1.689,-1.491089
1690,1.69,-1.484833
1691,1.691,-1.481781
1692,1.692,-1.520233
1693,1.693,-1.48941
1694,1.694,-1.444702
1695,1.695,-1.449432
1696,1.696,-1.519928
1697,1.697,-1.529083
1698,1.698,-1.563721
1699,1.699,-1.527863
1700,1.7,-1.492767
1701,1.701,-1.489258
1702,1.702,-1.507111
1703,1.703,-1.50238
1704,1.704,-1.493225
1705,1.705,-1.487427
1706,1.706,-1.475372
1707,1.707,-1.497192
1708,1.708,-1.490631
1709,1.709,-1.510468
1710,1.71,-1.535492
1711,1.711,-1.463318
1712,1.712,-1.524048
1713,1.713,-1.48056
1714,1.714,-1.558838
1715,1.715,-1.509552
1716,1.716,-1.495361
1717,1.717,-1.547699
1718,1.718,-1.480103
1719,1.719,-1.5065
1720,1.72,-1.548767
1721,1.721,-1.550293
1722,1.722,-1.518402
1723,1.723,-1.548615
1724,1.724,-1.529694
1725,1.725,-1.469574
1726,1.726,-1.512451
1727,1.727,-1.509705
1728,1.728,-1.492767
1729,1.729,-1.481781
1730,1.73,-1.552277
1731,1.731,-1.507416
1732,1.732,-1.568604
1733,1.733,-1.553955
1734,1.734,-1.503296
1735,1.735,-1.498871
1736,1.736,-1.483002
1737,1.737,-1.504669
1738,1.738,-1.473389
1739,1.739,-1.46225
1740,1.74,-1.52359
1741,1.741,-1.473083
1742,1.742,-1.50238
1743,1.743,-1.533813
1744,1.744,-1.50528
1745,1.745,-1.517334
1746,1.746,-1.5448
1747,1.747,-1.526794
1748,1.748,-1.510925
1749,1.749,-1.46637
1750,1.75,-1.520691
1751,1.7510000000000001,-1.544037
1752,1.752,-1.513824
1753,1.7530000000000001,-1.504669
1754,1.754,-1.492462
1755,1.7550000000000001,-1.51825
1756,1.756,-1.488342
1757,1.7570000000000001,-1.464386
1758,1.758,-1.517487
1759,1.7590000000000001,-1.510162
1760,1.76,-1.495056
1761,1.7610000000000001,-1.512299
1762,1.762,-1.496582
1763,1.7630000000000001,-1.530609
1764,1.764,-1.49765
1765,1.7650000000000001,-1.5625
1766,1.766,-1.547089
1767,1.7670000000000001,-1.528625
1768,1.768,-1.563721
1769,1.7690000000000001,-1.503754
1770,1.77,-1.487885
1771,1.7710000000000001,-1.539459
1772,1.772,-1.496124
1773,1.7730000000000001,-1.512604
1774,1.774,-1.519928
1775,1.7750000000000001,-1.495819
1776,1.776,-1.466064
1777,1.7770000000000001,-1.46347
1778,1.778,-1.501923
1779,1.7790000000000001,-1.446686
1780,1.78,-1.52832
1781,1.7810000000000001,-1.561584
1782,1.782,-1.506805
1783,1.7830000000000001,-1.511536
1784,1.784,-1.514282
1785,1.7850000000000001,-1.525879
1786,1.786,-1.561737
1787,1.7870000000000001,-1.51001
1788,1.788,-1.501007
1789,1.7890000000000001,-1.527557
1790,1.79,-1.532135
1791,1.7910000000000001,-1.525269
1792,1.792,-1.494598
1793,1.793,-1.55838
1794,1.794,-1.524506
1795,1.795,-1.610107
1796,1.796,-1.552582
1797,1.797,-1.516113
1798,1.798,-1.527252
1799,1.799,-1.549988
1800,1.8,-1.55365
1801,1.801,-1.555023
1802,1.802,-1.517792
1803,1.803,-1.5242
1804,1.804,-1.586761
1805,1.805,-1.596527
1806,1.806,-1.573334
1807,1.807,-1.532593
1808,1.808,-1.565857
1809,1.809,-1.536102
1810,1.81,-1.594086
1811,1.811,-1.607056
1812,1.812,-1.573639
1813,1.813,-1.543274
1814,1.814,-1.58905
1815,1.815,-1.620636
1816,1.816,-1.560211
1817,1.817,-1.602631
1818,1.818,-1.605988
1819,1.819,-1.620178
1820,1.82,-1.619263
1821,1.821,-1.586609
1822,1.822,-1.559143
1823,1.823,-1.580353
1824,1.824,-1.583099
1825,1.825,-1.604614
1826,1.826,-1.599426
1827,1.827,-1.62262
1828,1.828,-1.65802
1829,1.829,-1.622772
1830,1.83,-1.588593
1831,1.831,-1.601562
1832,1.832,-1.63147
1833,1.833,-1.632843
1834,1.834,-1.638031
1835,1.835,-1.564484
1836,1.836,-1.578064
1837,1.837,-1.561737
1838,1.838,-1.551514
1839,1.839,-1.620178
1840,1.84,-1.631622
1841,1.841,-1.606445
1842,1.842,-1.569824
1843,1.843,-1.641998
1844,1.844,-1.633911
1845,1.845,-1.660919
1846,1.846,-1.641083
1847,1.847,-1.636353
1848,1.848,-1.660156
1849,1.849,-1.619263
1850,1.85,-1.639099
1851,1.851,-1.602631
1852,1.852,-1.620483
1853,1.853,-1.649323
1854,1.854,-1.662598
1855,1.855,-1.591034
1856,1.856,-1.577759
1857,1.857,-1.62384
1858,1.858,-1.619415
1859,1.859,-1.598053
1860,1.86,-1.589203
1861,1.861,-1.622314
1862,1.862,-1.605225
1863,1.863,-1.64505
1864,1.864,-1.597443
1865,1.865,-1.641083
1866,1.866,-1.634369
1867,1.867,-1.669617
1868,1.868,-1.616364
1869,1.869,-1.647339
1870,1.87,-1.638184
1871,1.871,-1.594849
1872,1.872,-1.577759
1873,1.873,-1.642609
1874,1.874,-1.667023
1875,1.875,-1.627655
1876,1.8760000000000001,-1.632233
1877,1.877,-1.644287
1878,1.8780000000000001,-1.647491
1879,1.879,-1.657562
1880,1.8800000000000001,-1.643524
1881,1.881,-1.63559
1882,1.8820000000000001,-1.65329
1883,1.883,-1.644287
1884,1.8840000000000001,-1.655579
1885,1.885,-1.697388
1886,1.8860000000000001,-1.638336
1887,1.887,-1.674652
1888,1.8880000000000001,-1.632233
1889,1.889,-1.644592
1890,1.8900000000000001,-1.658173
1891,1.891,-1.628571
1892,1.8920000000000001,-1.678009
1893,1.893,-1.620483
1894,1.8940000000000001,-1.652374
1895,1.895,-1.656494
1896,1.8960000000000001,-1.67984
1897,1.897,-1.640167
1898,1.8980000000000001,-1.685181
1899,1.899,-1.65329
1900,1.9000000000000001,-1.711426
1901,1.901,-1.682587
1902,1.9020000000000001,-1.65802
1903,1.903,-1.612701
1904,1.9040000000000001,-1.651001
1905,1.905,-1.658325
1906,1.9060000000000001,-1.6745
1907,1.907,-1.627808
1908,1.9080000000000001,-1.698456
1909,1.909,-1.702576
1910,1.9100000000000001,-1.65863
1911,1.911,-1.635742
1912,1.9120000000000001,-1.676331
1913,1.913,-1.659393
1914,1.9140000000000001,-1.694489
1915,1.915,-1.70639
1916,1.9160000000000001,-1.708069
1917,1.917,-1.683807
1918,1.9180000000000001,-1.697998
1919,1.919,-1.659851
1920,1.92,-1.670685
1921,1.921,-1.665039
1922,1.922,-1.694946
1923,1.923,-1.62735
1924,1.924,-1.642914
1925,1.925,-1.662445
1926,1.926,-1.635742
1927,1.927,-1.672363
1928,1.928,-1.690521
1929,1.929,-1.655884
1930,1.93,-1.703186
1931,1.931,-1.72226
1932,1.932,-1.703186
1933,1.933,-1.691742
1934,1.934,-1.666412
1935,1.935,-1.665039
1936,1.936,-1.691895
1937,1.937,-1.687775
1938,1.938,-1.653442
1939,1.939,-1.680603
1940,1.94,-1.689758
1941,1.941,-1.615448
1942,1.942,-1.623077
1943,1.943,-1.664429
1944,1.944,-1.63559
1945,1.945,-1.690369
1946,1.946,-1.667938
1947,1.947,-1.712036
1948,1.948,-1.629486
1949,1.949,-1.668854
1950,1.95,-1.670074
1951,1.951,-1.669922
1952,1.952,-1.686707
1953,1.953,-1.678009
1954,1.954,-1.633606
1955,1.955,-1.68396
1956,1.956,-1.714325
1957,1.957,-1.655273
1958,1.958,-1.681976
1959,1.959,-1.695099
1960,1.96,-1.674194
1961,1.961,-1.685944
1962,1.962,-1.689148
1963,1.963,-1.656189
1964,1.964,-1.738129
1965,1.965,-1.691437
1966,1.966,-1.69281
1967,1.967,-1.698151
1968,1.968,-1.694183
1969,1.969,-1.73584
1970,1.97,-1.690674
1971,1.971,-1.665802
1972,1.972,-1.652679
1973,1.973,-1.686401
1974,1.974,-1.725616
1975,1.975,-1.678314
1976,1.976,-1.676178
1977,1.977,-1.627045
1978,1.978,-1.675568
1979,1.979,-1.683044
1980,1.98,-1.699524
1981,1.981,-1.704712
1982,1.982,-1.729889
1983,1.983,-1.681366
1984,1.984,-1.711578
1985,1.985,-1.716766
1986,1.986,-1.692505
1987,1.987,-1.694794
1988,1.988,-1.694946
1989,1.989,-1.662445
1990,1.99,-1.707458
1991,1.991,-1.656189
1992,1.992,-1.654358
1993,1.993,-1.688995
1994,1.994,-1.658325
1995,1.995,-1.667175
1996,1.996,-1.685333
1997,1.997,-1.707611
1998,1.998,-1.666412
1999,1.999,-1.671448
2000,2.0,-1.647491
2001,2.001,-1.682434
2002,2.0020000000000002,-1.699524
2003,2.003,-1.676025
2004,2.004,-1.676025
2005,2.005,-1.6716
2006,2.0060000000000002,-1.674805
2007,2.007,-1.726379
2008,2.008,-1.650085
2009,2.009,-1.657562
2010,2.0100000000000002,-1.705017
2011,2.011,-1.641388
2012,2.012,-1.716461
2013,2.013,-1.69281
2014,2.0140000000000002,-1.693726
2015,2.015,-1.71051
2016,2.016,-1.729431
2017,2.017,-1.725922
2018,2.0180000000000002,-1.681366
2019,2.019,-1.725769
2020,2.02,-1.665497
2021,2.021,-1.674194
2022,2.0220000000000002,-1.698151
2023,2.023,-1.660767
2024,2.024,-1.646271
2025,2.025,-1.725006
2026,2.0260000000000002,-1.67984
2027,2.027,-1.726532
2028,2.028,-1.689453
2029,2.029,-1.713104
2030,2.0300000000000002,-1.726685
2031,2.031,-1.657715
2032,2.032,-1.690674
2033,2.033,-1.712341
2034,2.0340000000000003,-1.681366
2035,2.035,-1.734924
2036,2.036,-1.739655
2037,2.037,-1.750183
2038,2.0380000000000003,-1.671143
2039,2.039,-1.690216
2040,2.04,-1.660309
2041,2.041,-1.721344
2042,2.0420000000000003,-1.649017
2043,2.043,-1.687164
2044,2.044,-1.654968
2045,2.045,-1.648102
2046,2.0460000000000003,-1.640167
2047,2.047,-1.715088
2048,2.048,-1.669922
2049,2.049,-1.640625
2050,2.05,-1.669006
2051,2.051,-1.641846
2052,2.052,-1.634979
2053,2.053,-1.63147
2054,2.054,-1.639099
2055,2.055,-1.58844
2056,2.056,-1.598053
2057,2.057,-1.607361
2058,2.058,-1.555176
2059,2.059,-1.585236
2060,2.06,-1.594086
2061,2.061,-1.598816
2062,2.062,-1.575165
2063,2.063,-1.576233
2064,2.064,-1.504669
2065,2.065,-1.487579
2066,2.066,-1.478119
2067,2.067,-1.44165
2068,2.068,-1.477051
2069,2.069,-1.452942
2070,2.07,-1.504517
2071,2.071,-1.443176
2072,2.072,-1.464386
2073,2.073,-1.412201
2074,2.074,-1.456604
2075,2.075,-1.467743
2076,2.076,-1.418762
2077,2.077,-1.371155
2078,2.078,-1.33667
2079,2.079,-1.310425
2080,2.08,-1.388245
2081,2.081,-1.357727
2082,2.082,-1.356964
2083,2.083,-1.384277
2084,2.084,-1.35376
2085,2.085,-1.364899
2086,2.086,-1.415558
2087,2.087,-1.345978
2088,2.088,-1.346283
2089,2.089,-1.379089
2090,2.09,-1.333313
2091,2.091,-1.283569
2092,2.092,-1.322784
2093,2.093,-1.319427
2094,2.094,-1.360931
2095,2.095,-1.395721
2096,2.096,-1.400299
2097,2.097,-1.409302
2098,2.098,-1.452026
2099,2.099,-1.362305
2100,2.1,-1.436615
2101,2.101,-1.441345
2102,2.102,-1.435852
2103,2.103,-1.390381
2104,2.104,-1.401367
2105,2.105,-1.351624
2106,2.106,-1.376495
2107,2.107,-1.407928
2108,2.108,-1.397858
2109,2.109,-1.460266
2110,2.11,-1.472473
2111,2.111,-1.483765
2112,2.112,-1.460114
2113,2.113,-1.425476
2114,2.114,-1.452332
2115,2.115,-1.481934
2116,2.116,-1.482239
2117,2.117,-1.460724
2118,2.118,-1.456909
2119,2.119,-1.496582
2120,2.12,-1.509857
2121,2.121,-1.500092
2122,2.122,-1.592712
2123,2.123,-1.548309
2124,2.124,-1.586914
2125,2.125,-1.595917
2126,2.126,-1.611023
2127,2.1270000000000002,-1.623993
2128,2.128,-1.619263
2129,2.129,-1.639557
2130,2.13,-1.673889
2131,2.1310000000000002,-1.689758
2132,2.132,-1.649323
2133,2.133,-1.645966
2134,2.134,-1.710358
2135,2.1350000000000002,-1.743774
2136,2.136,-1.664734
2137,2.137,-1.748047
2138,2.138,-1.694336
2139,2.1390000000000002,-1.761932
2140,2.14,-1.775055
2141,2.141,-1.719208
2142,2.142,-1.730957
2143,2.1430000000000002,-1.757202
2144,2.144,-1.767578
2145,2.145,-1.786957
2146,2.146,-1.822662
2147,2.1470000000000002,-1.849365
2148,2.148,-1.851044
2149,2.149,-1.872253
2150,2.15,-1.833801
2151,2.1510000000000002,-1.839905
2152,2.152,-1.846313
2153,2.153,-1.844788
2154,2.154,-1.846008
2155,2.1550000000000002,-1.821899
2156,2.156,-1.823273
2157,2.157,-1.812286
2158,2.158,-1.816559
2159,2.1590000000000003,-1.797028
2160,2.16,-1.761017
2161,2.161,-1.804199
2162,2.162,-1.835632
2163,2.1630000000000003,-1.842346
2164,2.164,-1.859589
2165,2.165,-1.835175
2166,2.166,-1.83609
2167,2.1670000000000003,-1.814423
2168,2.168,-1.834869
2169,2.169,-1.859436
2170,2.17,-1.86142
2171,2.1710000000000003,-1.82724
2172,2.172,-1.851807
2173,2.173,-1.854858
2174,2.174,-1.847687
2175,2.1750000000000003,-1.81488
2176,2.176,-1.810608
2177,2.177,-1.809387
2178,2.178,-1.850891
2179,2.179,-1.848755
2180,2.18,-1.847382
2181,2.181,-1.834869
2182,2.182,-1.842957
2183,2.183,-1.880341
2184,2.184,-1.88797
2185,2.185,-1.899109
2186,2.186,-1.852112
2187,2.187,-1.847839
2188,2.188,-1.844788
2189,2.189,-1.844635
2190,2.19,-1.854858
2191,2.191,-1.860504
2192,2.192,-1.844025
2193,2.193,-1.838226
2194,2.194,-1.825409
2195,2.195,-1.781006
2196,2.196,-1.756592
2197,2.197,-1.732178
2198,2.198,-1.734619
2199,2.199,-1.686707
2200,2.2,-1.617126
2201,2.201,-1.579742
2202,2.202,-1.537628
2203,2.203,-1.475067
2204,2.204,-1.397858
2205,2.205,-1.309814
2206,2.206,-1.31134
2207,2.207,-1.303406
2208,2.208,-1.280975
2209,2.209,-1.255493
2210,2.21,-1.232147
2211,2.211,-1.129303
2212,2.212,-1.044159
2213,2.213,-0.950012
2214,2.214,-0.868988
2215,2.215,-0.752716
2216,2.216,-0.580139
2217,2.217,-0.416565
2218,2.218,-0.286255
2219,2.219,-0.054474
2220,2.22,0.135956
2221,2.221,0.401917
2222,2.222,0.562439
2223,2.223,0.705414
2224,2.224,0.944977
2225,2.225,1.160431
2226,2.226,1.357269
2227,2.227,1.558228
2228,2.228,1.661377
2229,2.229,1.76712
2230,2.23,1.772919
2231,2.231,1.651917
2232,2.232,1.437073
2233,2.233,1.012726
2234,2.234,0.523834
2235,2.235,0.054474
2236,2.236,-0.321808
2237,2.237,-0.675964
2238,2.238,-0.943146
2239,2.239,-1.124878
2240,2.24,-1.277008
2241,2.241,-1.4505
2242,2.242,-1.457062
2243,2.243,-1.439972
2244,2.244,-1.454163
2245,2.245,-1.421051
2246,2.246,-1.461334
2247,2.247,-1.518555
2248,2.248,-1.597443
2249,2.249,-1.669464
2250,2.25,-1.764221
2251,2.251,-1.819458
2252,2.2520000000000002,-1.888885
2253,2.253,-1.964569
2254,2.254,-2.016144
2255,2.255,-2.050781
2256,2.2560000000000002,-2.061005
2257,2.257,-2.056427
2258,2.258,-2.04834
2259,2.259,-2.055359
2260,2.2600000000000002,-2.020874
2261,2.261,-1.97113
2262,2.262,-1.94519
2263,2.263,-1.986542
2264,2.2640000000000002,-1.955261
2265,2.265,-1.928101
2266,2.266,-1.942444
2267,2.267,-1.893311
2268,2.2680000000000002,-1.836243
2269,2.269,-1.830444
2270,2.27,-1.835175
2271,2.271,-1.815033
2272,2.2720000000000002,-1.783905
2273,2.273,-1.763458
2274,2.274,-1.854553
2275,2.275,-1.810608
2276,2.2760000000000002,-1.760101
2277,2.277,-1.825562
2278,2.278,-1.764679
2279,2.279,-1.779327
2280,2.2800000000000002,-1.769714
2281,2.281,-1.720581
2282,2.282,-1.772614
2283,2.283,-1.793365
2284,2.2840000000000003,-1.730957
2285,2.285,-1.776581
2286,2.286,-1.788788
2287,2.287,-1.794434
2288,2.2880000000000003,-1.735687
2289,2.289,-1.773071
2290,2.29,-1.795807
2291,2.291,-1.7659
2292,2.2920000000000003,-1.768646
2293,2.293,-1.804047
2294,2.294,-1.756287
2295,2.295,-1.716461
2296,2.2960000000000003,-1.752167
2297,2.297,-1.778107
2298,2.298,-1.838837
2299,2.299,-1.813354
2300,2.3000000000000003,-1.780396
2301,2.301,-1.768188
2302,2.302,-1.808167
2303,2.303,-1.823425
2304,2.3040000000000003,-1.800232
2305,2.305,-1.74118
2306,2.306,-1.717529
2307,2.307,-1.724396
2308,2.308,-1.721497
2309,2.309,-1.753082
2310,2.31,-1.758118
2311,2.311,-1.763153
2312,2.312,-1.772003
2313,2.313,-1.774597
2314,2.314,-1.773376
2315,2.315,-1.793365
2316,2.316,-1.808624
2317,2.317,-1.820831
2318,2.318,-1.809845
2319,2.319,-1.78833
2320,2.32,-1.782684
2321,2.321,-1.797943
2322,2.322,-1.797638
2323,2.323,-1.810455
2324,2.324,-1.812744
2325,2.325,-1.778412
2326,2.326,-1.760559
2327,2.327,-1.777496
2328,2.328,-1.747131
2329,2.329,-1.723938
2330,2.33,-1.747589
2331,2.331,-1.73996
2332,2.332,-1.726837
2333,2.333,-1.714935
2334,2.334,-1.699982
2335,2.335,-1.687012
2336,2.336,-1.696014
2337,2.337,-1.648102
2338,2.338,-1.663513
2339,2.339,-1.6716
2340,2.34,-1.717224
2341,2.341,-1.704865
2342,2.342,-1.658173
2343,2.343,-1.66626
2344,2.344,-1.665497
2345,2.345,-1.67511
2346,2.346,-1.711731
2347,2.347,-1.712189
2348,2.348,-1.714935
2349,2.349,-1.683502
2350,2.35,-1.620789
2351,2.351,-1.603241
2352,2.352,-1.660004
2353,2.353,-1.665344
2354,2.354,-1.626892
2355,2.355,-1.568756
2356,2.356,-1.5625
2357,2.357,-1.615143
2358,2.358,-1.630859
2359,2.359,-1.619415
2360,2.36,-1.621399
2361,2.361,-1.677704
2362,2.362,-1.719513
2363,2.363,-1.661682
2364,2.364,-1.624146
2365,2.365,-1.648102
2366,2.366,-1.679077
2367,2.367,-1.658478
2368,2.368,-1.642456
2369,2.369,-1.622009
2370,2.37,-1.655884
2371,2.371,-1.643982
2372,2.372,-1.6008
2373,2.373,-1.551361
2374,2.374,-1.56311
2375,2.375,-1.57608
2376,2.376,-1.556854
2377,2.3770000000000002,-1.582794
2378,2.378,-1.595154
2379,2.379,-1.563873
2380,2.38,-1.546478
2381,2.3810000000000002,-1.58905
2382,2.382,-1.599426
2383,2.383,-1.583405
2384,2.384,-1.590424
2385,2.3850000000000002,-1.585541
2386,2.386,-1.589508
2387,2.387,-1.573181
2388,2.388,-1.535492
2389,2.3890000000000002,-1.568604
2390,2.39,-1.563416
2391,2.391,-1.55777
2392,2.392,-1.583557
2393,2.3930000000000002,-1.620941
2394,2.394,-1.592865
2395,2.395,-1.560974
2396,2.396,-1.56723
2397,2.3970000000000002,-1.558075
2398,2.398,-1.568604
2399,2.399,-1.605988
2400,2.4,-1.548615
2401,2.4010000000000002,-1.543579
2402,2.402,-1.585693
2403,2.403,-1.528931
2404,2.404,-1.513824
2405,2.4050000000000002,-1.496735
2406,2.406,-1.443176
2407,2.407,-1.477203
2408,2.408,-1.455841
2409,2.4090000000000003,-1.4328
2410,2.41,-1.450653
2411,2.411,-1.40976
2412,2.412,-1.44516
2413,2.4130000000000003,-1.403351
2414,2.414,-1.389313
2415,2.415,-1.405487
2416,2.416,-1.383514
2417,2.4170000000000003,-1.411133
2418,2.418,-1.381836
2419,2.419,-1.405334
2420,2.42,-1.36322
2421,2.4210000000000003,-1.363831
2422,2.422,-1.334839
2423,2.423,-1.316681
2424,2.424,-1.324768
2425,2.4250000000000003,-1.320801
2426,2.426,-1.324005
2427,2.427,-1.325684
2428,2.428,-1.322937
2429,2.4290000000000003,-1.277618
2430,2.43,-1.285095
2431,2.431,-1.240692
2432,2.432,-1.266174
2433,2.433,-1.257324
2434,2.434,-1.256409
2435,2.435,-1.240845
2436,2.436,-1.192932
2437,2.437,-1.170349
2438,2.438,-1.153412
2439,2.439,-1.130676
2440,2.44,-1.108093
2441,2.441,-1.071777
2442,2.442,-1.095276
2443,2.443,-1.093597
2444,2.444,-1.083527
2445,2.445,-1.080322
2446,2.446,-1.101685
2447,2.447,-1.07254
2448,2.448,-1.069794
2449,2.449,-1.030121
2450,2.45,-1.002655
2451,2.451,-1.026154
2452,2.452,-1.029053
2453,2.453,-1.009979
2454,2.454,-0.988922
2455,2.455,-0.970917
2456,2.456,-0.959167
2457,2.457,-0.896759
2458,2.458,-0.891266
2459,2.459,-0.89325
2460,2.46,-0.89325
2461,2.461,-0.899353
2462,2.462,-0.88028
2463,2.463,-0.85083
2464,2.464,-0.865784
2465,2.465,-0.878601
2466,2.466,-0.859222
2467,2.467,-0.85022
2468,2.468,-0.856171
2469,2.469,-0.85083
2470,2.47,-0.83313
2471,2.471,-0.83786
2472,2.472,-0.831451
2473,2.473,-0.852509
2474,2.474,-0.847015
2475,2.475,-0.835724
2476,2.476,-0.853119
2477,2.477,-0.823212
2478,2.478,-0.819092
2479,2.479,-0.813293
2480,2.48,-0.859985
2481,2.481,-0.855103
2482,2.482,-0.856628
2483,2.483,-0.878448
2484,2.484,-0.890961
2485,2.485,-0.883636
2486,2.486,-0.902405
2487,2.487,-0.891266
2488,2.488,-0.881042
2489,2.489,-0.865479
2490,2.49,-0.890198
2491,2.491,-0.898437
2492,2.492,-0.911407
2493,2.493,-0.922394
2494,2.494,-0.935669
2495,2.495,-0.962372
2496,2.496,-0.980377
2497,2.497,-0.992889
2498,2.498,-1.042938
2499,2.499,-1.088715
2500,2.5,-1.091461
2501,2.501,-1.127319
2502,2.5020000000000002,-1.159058
2503,2.503,-1.147766
2504,2.504,-1.206055
2505,2.505,-1.194153
2506,2.5060000000000002,-1.2117
2507,2.507,-1.279449
2508,2.508,-1.269226
2509,2.509,-1.302643
2510,2.5100000000000002,-1.30722
2511,2.511,-1.344757
2512,2.512,-1.336212
2513,2.513,-1.357727
2514,2.5140000000000002,-1.391144
2515,2.515,-1.450958
2516,2.516,-1.473999
2517,2.517,-1.439667
2518,2.5180000000000002,-1.540527
2519,2.519,-1.552582
2520,2.52,-1.539001
2521,2.521,-1.539459
2522,2.5220000000000002,-1.59256
2523,2.523,-1.611938
2524,2.524,-1.648102
2525,2.525,-1.698608
2526,2.5260000000000002,-1.685944
2527,2.527,-1.684265
2528,2.528,-1.657104
2529,2.529,-1.593628
2530,2.5300000000000002,-1.641541
2531,2.531,-1.683502
2532,2.532,-1.721191
2533,2.533,-1.74057
2534,2.5340000000000003,-1.77536
2535,2.535,-1.76712
2536,2.536,-1.804962
2537,2.537,-1.843109
2538,2.5380000000000003,-1.798096
2539,2.539,-1.764679
2540,2.54,-1.741791
2541,2.541,-1.738892
2542,2.5420000000000003,-1.719818
2543,2.543,-1.743469
2544,2.544,-1.753387
2545,2.545,-1.762695
2546,2.5460000000000003,-1.806183
2547,2.547,-1.793518
2548,2.548,-1.785278
2549,2.549,-1.816559
2550,2.5500000000000003,-1.820679
2551,2.551,-1.852112
2552,2.552,-1.861725
2553,2.553,-1.899261
2554,2.5540000000000003,-1.916046
2555,2.555,-1.924744
2556,2.556,-1.920624
2557,2.557,-1.91452
2558,2.5580000000000003,-1.956635
2559,2.559,-2.009583
2560,2.56,-1.967773
2561,2.561,-1.937103
2562,2.562,-1.936493
2563,2.563,-1.975708
2564,2.564,-1.993408
2565,2.565,-1.956787
2566,2.566,-1.910095
2567,2.567,-1.858826
2568,2.568,-1.825409
2569,2.569,-1.803741
2570,2.57,-1.805878
2571,2.571,-1.783447
2572,2.572,-1.804199
2573,2.573,-1.81076
2574,2.574,-1.811829
2575,2.575,-1.80191
2576,2.576,-1.786346
2577,2.577,-1.806641
2578,2.578,-1.840057
2579,2.579,-1.862946
2580,2.58,-1.898193
2581,2.581,-1.930389
2582,2.582,-1.936188
2583,2.583,-1.917267
2584,2.584,-1.862946
2585,2.585,-1.837463
2586,2.586,-1.829834
2587,2.587,-1.847992
2588,2.588,-1.846008
2589,2.589,-1.848755
2590,2.59,-1.890869
2591,2.591,-1.906281
2592,2.592,-1.927185
2593,2.593,-1.954193
2594,2.594,-1.991272
2595,2.595,-2.004547
2596,2.596,-1.990662
2597,2.597,-1.979065
2598,2.598,-2.029572
2599,2.599,-2.062073
2600,2.6,-2.044678
2601,2.601,-2.004547
2602,2.602,-1.924591
2603,2.603,-1.864319
2604,2.604,-1.849213
2605,2.605,-1.861725
2606,2.606,-1.873322
2607,2.607,-1.902008
2608,2.608,-1.926727
2609,2.609,-1.95694
2610,2.61,-1.947327
2611,2.611,-1.917877
2612,2.612,-1.927948
2613,2.613,-1.907806
2614,2.614,-1.944122
2615,2.615,-1.97464
2616,2.616,-2.00058
2617,2.617,-1.998444
2618,2.618,-1.952972
2619,2.619,-1.968536
2620,2.62,-2.024536
2621,2.621,-2.014008
2622,2.622,-1.974335
2623,2.623,-2.026062
2624,2.624,-2.086945
2625,2.625,-2.016144
2626,2.626,-1.960907
2627,2.6270000000000002,-1.980438
2628,2.628,-1.964874
2629,2.629,-1.905518
2630,2.63,-1.908875
2631,2.6310000000000002,-1.897736
2632,2.632,-1.889343
2633,2.633,-1.896515
2634,2.634,-1.933441
2635,2.6350000000000002,-1.981812
2636,2.636,-1.95816
2637,2.637,-1.941071
2638,2.638,-1.916351
2639,2.6390000000000002,-1.90506
2640,2.64,-1.965179
2641,2.641,-2.035217
2642,2.642,-2.032623
2643,2.6430000000000002,-1.972351
2644,2.644,-1.995392
2645,2.645,-2.081909
2646,2.646,-2.137299
2647,2.6470000000000002,-2.049103
2648,2.648,-2.054291
2649,2.649,-2.099457
2650,2.65,-2.055511
2651,2.6510000000000002,-1.972351
2652,2.652,-1.931
2653,2.653,-1.881104
2654,2.654,-1.877136
2655,2.6550000000000002,-1.903839
2656,2.656,-1.887665
2657,2.657,-1.896057
2658,2.658,-1.874237
2659,2.6590000000000003,-1.894531
2660,2.66,-1.878357
2661,2.661,-1.839447
2662,2.662,-1.86203
2663,2.6630000000000003,-1.912994
2664,2.664,-1.959076
2665,2.665,-1.972351
2666,2.666,-1.959534
2667,2.6670000000000003,-1.938934
2668,2.668,-1.926575
2669,2.669,-1.923828
2670,2.67,-1.940613
2671,2.6710000000000003,-2.007446
2672,2.672,-1.990356
2673,2.673,-1.938019
2674,2.674,-1.967926
2675,2.6750000000000003,-1.983185
2676,2.676,-1.995697
2677,2.677,-1.979065
2678,2.678,-1.918488
2679,2.6790000000000003,-1.885834
2680,2.68,-1.900177
2681,2.681,-1.917572
2682,2.682,-1.940613
2683,2.6830000000000003,-1.962433
2684,2.684,-1.972198
2685,2.685,-1.939545
2686,2.686,-1.946259
2687,2.6870000000000003,-1.992035
2688,2.688,-2.047119
2689,2.689,-2.032928
2690,2.69,-1.988831
2691,2.691,-2.063141
2692,2.692,-2.084351
2693,2.693,-2.047424
2694,2.694,-2.047577
2695,2.695,-2.116547
2696,2.696,-2.047272
2697,2.697,-2.002563
2698,2.698,-2.061157
2699,2.699,-1.972809
2700,2.7,-1.913757
2701,2.701,-1.923981
2702,2.702,-1.944427
2703,2.703,-1.979828
2704,2.704,-1.955872
2705,2.705,-1.903534
2706,2.706,-1.851196
2707,2.707,-1.893921
2708,2.708,-1.89682
2709,2.709,-1.907959
2710,2.71,-1.938171
2711,2.711,-2.003021
2712,2.712,-1.987152
2713,2.713,-1.955109
2714,2.714,-1.959686
2715,2.715,-1.995544
2716,2.716,-1.995239
2717,2.717,-2.011566
2718,2.718,-1.928101
2719,2.719,-1.933136
2720,2.72,-1.986847
2721,2.721,-2.033234
2722,2.722,-2.019196
2723,2.723,-1.984406
2724,2.724,-1.978607
2725,2.725,-2.045441
2726,2.726,-2.0578
2727,2.727,-2.02652
2728,2.728,-2.032776
2729,2.729,-2.088013
2730,2.73,-2.056122
2731,2.731,-2.009125
2732,2.732,-2.057495
2733,2.733,-1.993713
2734,2.734,-1.903534
2735,2.735,-1.97937
2736,2.736,-2.014618
2737,2.737,-2.008514
2738,2.738,-2.011719
2739,2.739,-2.047577
2740,2.74,-1.946106
2741,2.741,-1.992035
2742,2.742,-2.016144
2743,2.743,-1.943817
2744,2.744,-2.014465
2745,2.745,-2.026062
2746,2.746,-2.05368
2747,2.747,-2.041168
2748,2.748,-2.015686
2749,2.749,-2.052002
2750,2.75,-2.028656
2751,2.751,-2.055359
2752,2.7520000000000002,-2.027435
2753,2.753,-1.972961
2754,2.754,-1.937103
2755,2.755,-2.021332
2756,2.7560000000000002,-1.986084
2757,2.757,-1.976471
2758,2.758,-1.977539
2759,2.759,-1.938019
2760,2.7600000000000002,-2.018433
2761,2.761,-1.950989
2762,2.762,-2.02774
2763,2.763,-2.029114
2764,2.7640000000000002,-1.988373
2765,2.765,-2.03476
2766,2.766,-2.000885
2767,2.767,-2.03949
2768,2.7680000000000002,-2.05246
2769,2.769,-1.978149
2770,2.77,-2.054901
2771,2.771,-2.02179
2772,2.7720000000000002,-2.015533
2773,2.773,-2.056427
2774,2.774,-2.048645
2775,2.775,-2.006378
2776,2.7760000000000002,-2.059784
2777,2.777,-2.024994
2778,2.778,-2.022247
2779,2.779,-2.084961
2780,2.7800000000000002,-2.046204
2781,2.781,-2.10083
2782,2.782,-2.07962
2783,2.783,-2.036285
2784,2.7840000000000003,-2.121887
2785,2.785,-2.106476
2786,2.786,-2.083435
2787,2.787,-2.145691
2788,2.7880000000000003,-2.059174
2789,2.789,-2.060852
2790,2.79,-2.076111
2791,2.791,-2.028351
2792,2.7920000000000003,-2.058563
2793,2.793,-1.972656
2794,2.794,-1.934052
2795,2.795,-1.893005
2796,2.7960000000000003,-1.980743
2797,2.797,-1.946411
2798,2.798,-2.041016
2799,2.799,-1.988983
2800,2.8000000000000003,-2.087097
2801,2.801,-1.999512
2802,2.802,-2.093353
2803,2.803,-2.017517
2804,2.8040000000000003,-2.08374
2805,2.805,-2.017822
2806,2.806,-2.002716
2807,2.807,-2.064819
2808,2.8080000000000003,-2.011108
2809,2.809,-2.059631
2810,2.81,-2.071686
2811,2.811,-1.968842
2812,2.8120000000000003,-1.999054
2813,2.813,-2.091522
2814,2.814,-2.083588
2815,2.815,-2.017059
2816,2.816,-2.039795
2817,2.817,-2.078552
2818,2.818,-2.111206
2819,2.819,-2.065887
2820,2.82,-2.048187
2821,2.821,-2.02179
2822,2.822,-2.068939
2823,2.823,-2.112732
2824,2.824,-2.08847
2825,2.825,-2.065582
2826,2.826,-2.068329
2827,2.827,-2.093353
2828,2.828,-2.147217
2829,2.829,-2.152863
2830,2.83,-2.08725
2831,2.831,-2.040558
2832,2.832,-2.019348
2833,2.833,-2.027283
2834,2.834,-2.093811
2835,2.835,-2.12677
2836,2.836,-2.140045
2837,2.837,-2.111053
2838,2.838,-2.053375
2839,2.839,-2.115326
2840,2.84,-2.165527
2841,2.841,-2.184143
2842,2.842,-2.103424
2843,2.843,-2.132568
2844,2.844,-2.166443
2845,2.845,-2.162781
2846,2.846,-2.136078
2847,2.847,-2.103271
2848,2.848,-2.129517
2849,2.849,-2.126923
2850,2.85,-2.101593
2851,2.851,-2.107086
2852,2.852,-2.083282
2853,2.853,-2.043762
2854,2.854,-1.994781
2855,2.855,-2.020721
2856,2.856,-2.08313
2857,2.857,-2.124939
2858,2.858,-2.137604
2859,2.859,-2.108154
2860,2.86,-2.050018
2861,2.861,-2.013092
2862,2.862,-1.971436
2863,2.863,-1.95343
2864,2.864,-1.990509
2865,2.865,-2.026062
2866,2.866,-2.036743
2867,2.867,-2.077789
2868,2.868,-2.083282
2869,2.869,-2.069092
2870,2.87,-2.049561
2871,2.871,-2.044983
2872,2.872,-2.044983
2873,2.873,-2.064362
2874,2.874,-2.089539
2875,2.875,-2.119141
2876,2.876,-2.083282
2877,2.8770000000000002,-2.045441
2878,2.878,-2.106781
2879,2.879,-2.089233
2880,2.88,-2.024078
2881,2.8810000000000002,-2.062225
2882,2.882,-2.073517
2883,2.883,-2.073517
2884,2.884,-2.073669
2885,2.8850000000000002,-2.108765
2886,2.886,-2.080536
2887,2.887,-2.097168
2888,2.888,-2.141113
2889,2.8890000000000002,-2.151947
2890,2.89,-2.159882
2891,2.891,-2.146301
2892,2.892,-2.127533
2893,2.8930000000000002,-2.107239
2894,2.894,-2.132721
2895,2.895,-2.149658
2896,2.896,-2.144623
2897,2.8970000000000002,-2.106323
2898,2.898,-2.101135
2899,2.899,-2.088623
2900,2.9,-2.090302
2901,2.9010000000000002,-2.07901
2902,2.902,-2.06543
2903,2.903,-2.093353
2904,2.904,-2.105713
2905,2.9050000000000002,-2.068634
2906,2.906,-2.059937
2907,2.907,-2.104187
2908,2.908,-2.090759
2909,2.9090000000000003,-2.06955
2910,2.91,-2.103882
2911,2.911,-2.118835
2912,2.912,-2.108459
2913,2.9130000000000003,-2.073975
2914,2.914,-2.083588
2915,2.915,-2.08252
2916,2.916,-2.07428
2917,2.9170000000000003,-2.114868
2918,2.918,-2.107849
2919,2.919,-2.048798
2920,2.92,-2.08374
2921,2.9210000000000003,-2.108307
2922,2.922,-2.102966
2923,2.923,-2.101135
2924,2.924,-2.104187
2925,2.9250000000000003,-2.144928
2926,2.926,-2.166748
2927,2.927,-2.130737
2928,2.928,-2.105103
2929,2.9290000000000003,-2.18689
2930,2.93,-2.122498
2931,2.931,-2.196655
2932,2.932,-2.200928
2933,2.9330000000000003,-2.125244
2934,2.934,-2.09671
2935,2.935,-2.107849
2936,2.936,-2.117157
2937,2.9370000000000003,-2.078705
2938,2.938,-2.093506
2939,2.939,-2.111359
2940,2.94,-2.113495
2941,2.9410000000000003,-2.123108
2942,2.942,-2.116852
2943,2.943,-2.11731
2944,2.944,-2.119598
2945,2.945,-2.135773
2946,2.946,-2.133942
2947,2.947,-2.134705
2948,2.948,-2.164612
2949,2.949,-2.114105
2950,2.95,-2.070007
2951,2.951,-2.102966
2952,2.952,-2.091217
2953,2.953,-2.056427
2954,2.954,-2.061005
2955,2.955,-2.133179
2956,2.956,-2.158051
2957,2.957,-2.081909
2958,2.958,-2.114258
2959,2.959,-2.152557
2960,2.96,-2.09671
2961,2.961,-2.111359
2962,2.962,-2.168274
2963,2.963,-2.141266
2964,2.964,-2.076721
2965,2.965,-2.10434
2966,2.966,-2.151794
2967,2.967,-2.113647
2968,2.968,-2.113647
2969,2.969,-2.171021
2970,2.97,-2.141266
2971,2.971,-2.09259
2972,2.972,-2.101746
2973,2.973,-2.132263
2974,2.974,-2.102509
2975,2.975,-2.044983
2976,2.976,-2.114716
2977,2.977,-2.132568
2978,2.978,-2.088776
2979,2.979,-2.098694
2980,2.98,-2.145996
2981,2.981,-2.095947
2982,2.982,-2.082977
2983,2.983,-2.159271
2984,2.984,-2.118378
2985,2.985,-2.083893
2986,2.986,-2.136993
2987,2.987,-2.082672
2988,2.988,-2.059174
2989,2.989,-2.135315
2990,2.99,-2.108612
2991,2.991,-2.086334
2992,2.992,-2.148132
2993,2.993,-2.135315
2994,2.994,-2.062988
2995,2.995,-2.146454
2996,2.996,-2.146149
2997,2.997,-2.100067
2998,2.998,-2.155914
2999,2.999,-2.082825
3000,3.0,-2.151794
3001,3.001,-2.146301
3002,3.0020000000000002,-2.078857
3003,3.003,-2.10083
3004,3.004,-2.035522
3005,3.005,-2.037659
3006,3.0060000000000002,-2.13913
3007,3.007,-2.094421
3008,3.008,-2.086334
3009,3.009,-2.140656
3010,3.0100000000000002,-2.076569
3011,3.011,-2.117157
3012,3.012,-2.124634
3013,3.013,-2.049103
3014,3.0140000000000002,-2.094269
3015,3.015,-2.126923
3016,3.016,-2.040253
3017,3.017,-2.071991
3018,3.0180000000000002,-2.088928
3019,3.019,-2.033386
3020,3.02,-2.016907
3021,3.021,-2.071838
3022,3.0220000000000002,-2.017975
3023,3.023,-2.008362
3024,3.024,-2.046661
3025,3.025,-1.9664
3026,3.0260000000000002,-1.932526
3027,3.027,-2.028656
3028,3.028,-2.008362
3029,3.029,-1.951141
3030,3.0300000000000002,-2.023163
3031,3.031,-2.019653
3032,3.032,-1.903534
3033,3.033,-1.847687
3034,3.0340000000000003,-1.862946
3035,3.035,-1.903229
3036,3.036,-1.885986
3037,3.037,-1.864014
3038,3.0380000000000003,-1.847992
3039,3.039,-1.816711
3040,3.04,-1.811676
3041,3.041,-1.808777
3042,3.0420000000000003,-1.834564
3043,3.043,-1.830902
3044,3.044,-1.815338
3045,3.045,-1.776733
3046,3.0460000000000003,-1.73111
3047,3.047,-1.725311
3048,3.048,-1.695404
3049,3.049,-1.671143
3050,3.0500000000000003,-1.658173
3051,3.051,-1.643829
3052,3.052,-1.657867
3053,3.053,-1.642609
3054,3.0540000000000003,-1.645203
3055,3.055,-1.653442
3056,3.056,-1.637268
3057,3.057,-1.657104
3058,3.0580000000000003,-1.674194
3059,3.059,-1.668396
3060,3.06,-1.667938
3061,3.061,-1.651306
3062,3.0620000000000003,-1.640625
3063,3.063,-1.640167
3064,3.064,-1.640625
3065,3.065,-1.620636
3066,3.0660000000000003,-1.642303
3067,3.067,-1.677704
3068,3.068,-1.677856
3069,3.069,-1.660767
3070,3.0700000000000003,-1.672668
3071,3.071,-1.682739
3072,3.072,-1.705933
3073,3.073,-1.715088
3074,3.074,-1.72287
3075,3.075,-1.68808
3076,3.076,-1.671906
3077,3.077,-1.652222
3078,3.078,-1.633301
3079,3.079,-1.657257
3080,3.08,-1.699982
3081,3.081,-1.725159
3082,3.082,-1.725769
3083,3.083,-1.725616
3084,3.084,-1.761169
3085,3.085,-1.737671
3086,3.086,-1.691895
3087,3.087,-1.720734
3088,3.088,-1.766968
3089,3.089,-1.769867
3090,3.09,-1.712952
3091,3.091,-1.71402
3092,3.092,-1.725311
3093,3.093,-1.783905
3094,3.094,-1.772461
3095,3.095,-1.754608
3096,3.096,-1.81488
3097,3.097,-1.816864
3098,3.098,-1.829224
3099,3.099,-1.909332
3100,3.1,-1.842804
3101,3.101,-1.954041
3102,3.102,-1.824493
3103,3.103,-1.864166
3104,3.104,-1.813812
3105,3.105,-1.910553
3106,3.106,-1.887512
3107,3.107,-1.92688
3108,3.108,-1.970367
3109,3.109,-1.918793
3110,3.11,-1.978302
3111,3.111,-1.992187
3112,3.112,-1.928101
3113,3.113,-1.997375
3114,3.114,-2.063141
3115,3.115,-2.068634
3116,3.116,-2.068024
3117,3.117,-2.03949
3118,3.118,-2.010498
3119,3.119,-2.033386
3120,3.12,-2.039185
3121,3.121,-2.042389
3122,3.122,-2.022247
3123,3.123,-2.046051
3124,3.124,-2.045288
3125,3.125,-2.019501
3126,3.126,-2.006683
3127,3.1270000000000002,-1.996307
3128,3.128,-2.012177
3129,3.129,-2.007751
3130,3.13,-1.994476
3131,3.1310000000000002,-2.012787
3132,3.132,-2.021179
3133,3.133,-1.984711
3134,3.134,-2.019348
3135,3.1350000000000002,-2.004852
3136,3.136,-1.973572
3137,3.137,-1.972656
3138,3.138,-1.98822
3139,3.1390000000000002,-1.993256
3140,3.14,-1.973267
3141,3.141,-1.941223
3142,3.142,-1.930084
3143,3.1430000000000002,-1.934814
3144,3.144,-1.965027
3145,3.145,-1.944122
3146,3.146,-1.981964
3147,3.1470000000000002,-2.003174
3148,3.148,-1.991425
3149,3.149,-1.953583
3150,3.15,-1.972504
3151,3.1510000000000002,-1.978912
3152,3.152,-1.950684
3153,3.153,-1.965485
3154,3.154,-1.94931
3155,3.1550000000000002,-1.981049
3156,3.156,-1.947784
3157,3.157,-1.959686
3158,3.158,-1.958771
3159,3.1590000000000003,-1.934204
3160,3.16,-1.924438
3161,3.161,-1.918488
3162,3.162,-1.891785
3163,3.1630000000000003,-1.874847
3164,3.164,-1.88385
3165,3.165,-1.867065
3166,3.166,-1.841431
3167,3.1670000000000003,-1.822205
3168,3.168,-1.737823
3169,3.169,-1.725922
3170,3.17,-1.738739
3171,3.1710000000000003,-1.641235
3172,3.172,-1.666565
3173,3.173,-1.593628
3174,3.174,-1.530914
3175,3.1750000000000003,-1.440125
3176,3.176,-1.437378
3177,3.177,-1.424561
3178,3.178,-1.388092
3179,3.1790000000000003,-1.339264
3180,3.18,-1.284027
3181,3.181,-1.240845
3182,3.182,-1.172943
3183,3.1830000000000003,-1.063843
3184,3.184,-0.939941
3185,3.185,-0.856323
3186,3.186,-0.707092
3187,3.1870000000000003,-0.501404
3188,3.188,-0.356445
3189,3.189,-0.171051
3190,3.19,0.039062
3191,3.1910000000000003,0.243073
3192,3.192,0.519409
3193,3.193,0.708923
3194,3.194,0.86792
3195,3.1950000000000003,1.073914
3196,3.196,1.262665
3197,3.197,1.486969
3198,3.198,1.65451
3199,3.1990000000000003,1.784668
3200,3.2,1.840057
3201,3.201,1.738586
3202,3.202,1.617584
3203,3.203,1.160278
3204,3.204,0.663757
3205,3.205,0.297546
3206,3.206,-0.152588
3207,3.207,-0.558319
3208,3.208,-0.908203
3209,3.209,-1.125336
3210,3.21,-1.288605
3211,3.211,-1.436157
3212,3.212,-1.481476
3213,3.213,-1.4328
3214,3.214,-1.428986
3215,3.215,-1.361694
3216,3.216,-1.40625
3217,3.217,-1.44455
3218,3.218,-1.532135
3219,3.219,-1.533508
3220,3.22,-1.612396
3221,3.221,-1.741791
3222,3.222,-1.824036
3223,3.223,-1.892395
3224,3.224,-1.968231
3225,3.225,-2.054749
3226,3.226,-2.069092
3227,3.227,-2.037811
3228,3.228,-2.009277
3229,3.229,-2.053375
3230,3.23,-2.053833
3231,3.231,-2.034454
3232,3.232,-2.050476
3233,3.233,-2.00058
3234,3.234,-1.938477
3235,3.235,-1.914215
3236,3.236,-1.887512
3237,3.237,-1.86203
3238,3.238,-1.778107
3239,3.239,-1.704712
3240,3.24,-1.73111
3241,3.241,-1.753235
3242,3.242,-1.711578
3243,3.243,-1.694794
3244,3.244,-1.742859
3245,3.245,-1.70929
3246,3.246,-1.694794
3247,3.247,-1.754761
3248,3.248,-1.756592
3249,3.249,-1.704865
3250,3.25,-1.689301
3251,3.251,-1.725616
3252,3.2520000000000002,-1.701813
3253,3.253,-1.675568
3254,3.254,-1.691742
3255,3.255,-1.700287
3256,3.2560000000000002,-1.658325
3257,3.257,-1.707001
3258,3.258,-1.708832
3259,3.259,-1.666565
3260,3.2600000000000002,-1.694183
3261,3.261,-1.725464
3262,3.262,-1.685333
3263,3.263,-1.697083
3264,3.2640000000000002,-1.717987
3265,3.265,-1.653442
3266,3.266,-1.667175
3267,3.267,-1.689301
3268,3.2680000000000002,-1.678619
3269,3.269,-1.68335
3270,3.27,-1.663818
3271,3.271,-1.660614
3272,3.2720000000000002,-1.700287
3273,3.273,-1.672211
3274,3.274,-1.665039
3275,3.275,-1.693115
3276,3.2760000000000002,-1.641388
3277,3.277,-1.638947
3278,3.278,-1.64093
3279,3.279,-1.622925
3280,3.2800000000000002,-1.694794
3281,3.281,-1.695099
3282,3.282,-1.644135
3283,3.283,-1.638184
3284,3.2840000000000003,-1.623993
3285,3.285,-1.629486
3286,3.286,-1.629944
3287,3.287,-1.624298
3288,3.2880000000000003,-1.6185
3289,3.289,-1.589813
3290,3.29,-1.585083
3291,3.291,-1.60614
3292,3.2920000000000003,-1.598511
3293,3.293,-1.571655
3294,3.294,-1.630707
3295,3.295,-1.622009
3296,3.2960000000000003,-1.609955
3297,3.297,-1.612091
3298,3.298,-1.604462
3299,3.299,-1.612091
3300,3.3000000000000003,-1.613159
3301,3.301,-1.583405
3302,3.302,-1.595001
3303,3.303,-1.573334
3304,3.3040000000000003,-1.55304
3305,3.305,-1.546478
3306,3.306,-1.545868
3307,3.307,-1.538544
3308,3.3080000000000003,-1.531372
3309,3.309,-1.559906
3310,3.31,-1.546173
3311,3.311,-1.571808
3312,3.3120000000000003,-1.588898
3313,3.313,-1.571045
3314,3.314,-1.535187
3315,3.315,-1.545868
3316,3.3160000000000003,-1.520081
3317,3.317,-1.534424
3318,3.318,-1.520538
3319,3.319,-1.517181
3320,3.3200000000000003,-1.516113
3321,3.321,-1.529541
3322,3.322,-1.513367
3323,3.323,-1.52771
3324,3.3240000000000003,-1.51535
3325,3.325,-1.553955
3326,3.326,-1.486359
3327,3.327,-1.527405
3328,3.3280000000000003,-1.479645
3329,3.329,-1.499023
3330,3.33,-1.475983
3331,3.331,-1.51947
3332,3.332,-1.498871
3333,3.333,-1.507568
3334,3.334,-1.478271
3335,3.335,-1.424713
3336,3.336,-1.469879
3337,3.337,-1.432953
3338,3.338,-1.47644
3339,3.339,-1.454315
3340,3.34,-1.488037
3341,3.341,-1.478271
3342,3.342,-1.487579
3343,3.343,-1.459198
3344,3.344,-1.490631
3345,3.345,-1.457367
3346,3.346,-1.42334
3347,3.347,-1.453552
3348,3.348,-1.459045
3349,3.349,-1.449432
3350,3.35,-1.452026
3351,3.351,-1.458435
3352,3.352,-1.452942
3353,3.353,-1.468048
3354,3.354,-1.416473
3355,3.355,-1.392059
3356,3.356,-1.40625
3357,3.357,-1.396332
3358,3.358,-1.372223
3359,3.359,-1.390533
3360,3.36,-1.386261
3361,3.361,-1.38504
3362,3.362,-1.378937
3363,3.363,-1.379395
3364,3.364,-1.371307
3365,3.365,-1.369781
3366,3.366,-1.383514
3367,3.367,-1.366577
3368,3.368,-1.335754
3369,3.369,-1.320343
3370,3.37,-1.307983
3371,3.371,-1.296997
3372,3.372,-1.307373
3373,3.373,-1.319122
3374,3.374,-1.317291
3375,3.375,-1.313171
3376,3.376,-1.28418
3377,3.3770000000000002,-1.273346
3378,3.378,-1.273041
3379,3.379,-1.266632
3380,3.38,-1.273651
3381,3.3810000000000002,-1.27243
3382,3.382,-1.268768
3383,3.383,-1.265106
3384,3.384,-1.272583
3385,3.3850000000000002,-1.248016
3386,3.386,-1.24649
3387,3.387,-1.251373
3388,3.388,-1.242065
3389,3.3890000000000002,-1.228638
3390,3.39,-1.209106
3391,3.391,-1.190338
3392,3.392,-1.154938
3393,3.3930000000000002,-1.1763
3394,3.394,-1.205597
3395,3.395,-1.166229
3396,3.396,-1.14624
3397,3.3970000000000002,-1.165771
3398,3.398,-1.122131
3399,3.399,-1.08963
3400,3.4,-1.103668
3401,3.4010000000000002,-1.09314
3402,3.402,-1.105194
3403,3.403,-1.119995
3404,3.404,-1.0466
3405,3.4050000000000002,-1.025238
3406,3.406,-0.98587
3407,3.407,-1.003113
3408,3.408,-0.986786
3409,3.4090000000000003,-0.988617
3410,3.41,-0.977325
3411,3.411,-0.996552
3412,3.412,-0.970001
3413,3.4130000000000003,-0.992126
3414,3.414,-0.956573
3415,3.415,-0.958862
3416,3.416,-0.949554
3417,3.4170000000000003,-0.94162
3418,3.418,-0.930176
3419,3.419,-0.895538
3420,3.42,-0.852509
3421,3.4210000000000003,-0.823975
3422,3.422,-0.823212
3423,3.423,-0.834961
3424,3.424,-0.808868
3425,3.4250000000000003,-0.801697
3426,3.426,-0.802002
3427,3.427,-0.81131
3428,3.428,-0.832977
3429,3.4290000000000003,-0.792694
3430,3.43,-0.779724
3431,3.431,-0.782318
3432,3.432,-0.748901
3433,3.4330000000000003,-0.737457
3434,3.434,-0.724945
3435,3.435,-0.709534
3436,3.436,-0.704956
3437,3.4370000000000003,-0.694427
3438,3.438,-0.687714
3439,3.439,-0.637665
3440,3.44,-0.665741
3441,3.4410000000000003,-0.65155
3442,3.442,-0.675354
3443,3.443,-0.625763
3444,3.444,-0.636444
3445,3.4450000000000003,-0.643616
3446,3.446,-0.617676
3447,3.447,-0.681763
3448,3.448,-0.619354
3449,3.4490000000000003,-0.66864
3450,3.45,-0.624237
3451,3.451,-0.642242
3452,3.452,-0.647736
3453,3.4530000000000003,-0.60318
3454,3.454,-0.654907
3455,3.455,-0.61264
3456,3.456,-0.635071
3457,3.457,-0.650635
3458,3.458,-0.617981
3459,3.459,-0.654297
3460,3.46,-0.639954
3461,3.461,-0.696259
3462,3.462,-0.688934
3463,3.463,-0.729523
3464,3.464,-0.75119
3465,3.465,-0.762939
3466,3.466,-0.764008
3467,3.467,-0.814819
3468,3.468,-0.800629
3469,3.469,-0.826416
3470,3.47,-0.82489
3471,3.471,-0.872498
3472,3.472,-0.938568
3473,3.473,-0.95047
3474,3.474,-0.950165
3475,3.475,-0.92926
3476,3.476,-0.980682
3477,3.477,-1.027527
3478,3.478,-1.046295
3479,3.479,-1.075439
3480,3.48,-1.1026
3481,3.481,-1.12793
3482,3.482,-1.16333
3483,3.483,-1.189728
3484,3.484,-1.210785
3485,3.485,-1.218414
3486,3.486,-1.237946
3487,3.487,-1.210785
3488,3.488,-1.262207
3489,3.489,-1.295319
3490,3.49,-1.331787
3491,3.491,-1.341858
3492,3.492,-1.340179
3493,3.493,-1.357422
3494,3.494,-1.352844
3495,3.495,-1.393738
3496,3.496,-1.401825
3497,3.497,-1.449432
3498,3.498,-1.485596
3499,3.499,-1.464233
3500,3.5,-1.500702
3501,3.501,-1.512299
3502,3.5020000000000002,-1.4888
3503,3.503,-1.497955
3504,3.504,-1.520081
3505,3.505,-1.515198
3506,3.5060000000000002,-1.570435
3507,3.507,-1.561737
3508,3.508,-1.53595
3509,3.509,-1.584473
3510,3.5100000000000002,-1.579132
3511,3.511,-1.617432
3512,3.512,-1.616516
3513,3.513,-1.638184
3514,3.5140000000000002,-1.648254
3515,3.515,-1.628876
3516,3.516,-1.669006
3517,3.517,-1.653595
3518,3.5180000000000002,-1.649933
3519,3.519,-1.644287
3520,3.52,-1.661682
3521,3.521,-1.623688
3522,3.5220000000000002,-1.644287
3523,3.523,-1.640625
3524,3.524,-1.658936
3525,3.525,-1.649323
3526,3.5260000000000002,-1.613007
3527,3.527,-1.63559
3528,3.528,-1.646271
3529,3.529,-1.731262
3530,3.5300000000000002,-1.676788
3531,3.531,-1.696625
3532,3.532,-1.657104
3533,3.533,-1.674957
3534,3.5340000000000003,-1.653137
3535,3.535,-1.673584
3536,3.536,-1.641541
3537,3.537,-1.668091
3538,3.5380000000000003,-1.631775
3539,3.539,-1.67038
3540,3.54,-1.637115
3541,3.541,-1.650238
3542,3.5420000000000003,-1.660309
3543,3.543,-1.660156
3544,3.544,-1.698608
3545,3.545,-1.663666
3546,3.5460000000000003,-1.719971
3547,3.547,-1.661835
3548,3.548,-1.701813
3549,3.549,-1.676331
3550,3.5500000000000003,-1.687012
3551,3.551,-1.656189
3552,3.552,-1.701355
3553,3.553,-1.689301
3554,3.5540000000000003,-1.703644
3555,3.555,-1.674194
3556,3.556,-1.653595
3557,3.557,-1.638947
3558,3.5580000000000003,-1.688538
3559,3.559,-1.642609
3560,3.56,-1.67923
3561,3.561,-1.650543
3562,3.5620000000000003,-1.681061
3563,3.563,-1.677551
3564,3.564,-1.660614
3565,3.565,-1.691132
3566,3.5660000000000003,-1.667633
3567,3.567,-1.707611
3568,3.568,-1.680298
3569,3.569,-1.712799
3570,3.5700000000000003,-1.667786
3571,3.571,-1.678162
3572,3.572,-1.6539
3573,3.573,-1.665955
3574,3.5740000000000003,-1.670685
3575,3.575,-1.656647
3576,3.576,-1.671448
3577,3.577,-1.660767
3578,3.5780000000000003,-1.687775
3579,3.579,-1.644592
3580,3.58,-1.684113
3581,3.581,-1.694489
3582,3.5820000000000003,-1.711273
3583,3.583,-1.682892
3584,3.584,-1.663971
3585,3.585,-1.646729
3586,3.586,-1.638794
3587,3.587,-1.642761
3588,3.588,-1.628723
3589,3.589,-1.660919
3590,3.59,-1.638947
3591,3.591,-1.64505
3592,3.592,-1.635437
3593,3.593,-1.674194
3594,3.594,-1.63147
3595,3.595,-1.674042
3596,3.596,-1.663818
3597,3.597,-1.663513
3598,3.598,-1.67511
3599,3.599,-1.676941
3600,3.6,-1.682281
3601,3.601,-1.648865
3602,3.602,-1.659698
3603,3.603,-1.665192
3604,3.604,-1.642303
3605,3.605,-1.672974
3606,3.606,-1.632538
3607,3.607,-1.687469
3608,3.608,-1.675873
3609,3.609,-1.682892
3610,3.61,-1.654663
3611,3.611,-1.656189
3612,3.612,-1.674347
3613,3.613,-1.681061
3614,3.614,-1.695709
3615,3.615,-1.671753
3616,3.616,-1.68045
3617,3.617,-1.646423
3618,3.618,-1.676788
3619,3.619,-1.639862
3620,3.62,-1.638336
3621,3.621,-1.672974
3622,3.622,-1.652374
3623,3.623,-1.661835
3624,3.624,-1.629944
3625,3.625,-1.667023
3626,3.626,-1.612701
3627,3.6270000000000002,-1.667023
3628,3.628,-1.673279
3629,3.629,-1.676788
3630,3.63,-1.671295
3631,3.6310000000000002,-1.653137
3632,3.632,-1.672516
3633,3.633,-1.64505
3634,3.634,-1.654053
3635,3.6350000000000002,-1.629791
3636,3.636,-1.680145
3637,3.637,-1.672516
3638,3.638,-1.653748
3639,3.6390000000000002,-1.657867
3640,3.64,-1.628876
3641,3.641,-1.665497
3642,3.642,-1.645355
3643,3.6430000000000002,-1.660309
3644,3.644,-1.641541
3645,3.645,-1.685028
3646,3.646,-1.687317
3647,3.6470000000000002,-1.664124
3648,3.648,-1.699982
3649,3.649,-1.688538
3650,3.65,-1.673431
3651,3.6510000000000002,-1.638336
3652,3.652,-1.654205
3653,3.653,-1.623993
3654,3.654,-1.631165
3655,3.6550000000000002,-1.642609
3656,3.656,-1.643982
3657,3.657,-1.654358
3658,3.658,-1.626587
3659,3.6590000000000003,-1.647186
3660,3.66,-1.621857
3661,3.661,-1.624756
3662,3.662,-1.661987
3663,3.6630000000000003,-1.650391
3664,3.664,-1.656647
3665,3.665,-1.627045
3666,3.666,-1.670074
3667,3.6670000000000003,-1.662292
3668,3.668,-1.639862
3669,3.669,-1.643524
3670,3.67,-1.616058
3671,3.6710000000000003,-1.63681
3672,3.672,-1.623688
3673,3.673,-1.651154
3674,3.674,-1.622162
3675,3.6750000000000003,-1.621094
3676,3.676,-1.665649
3677,3.677,-1.660156
3678,3.678,-1.680603
3679,3.6790000000000003,-1.639557
3680,3.68,-1.681366
3681,3.681,-1.614075
3682,3.682,-1.640015
3683,3.6830000000000003,-1.639404
3684,3.684,-1.672516
3685,3.685,-1.634064
3686,3.686,-1.654053
3687,3.6870000000000003,-1.642456
3688,3.688,-1.667938
3689,3.689,-1.625977
3690,3.69,-1.651459
3691,3.6910000000000003,-1.658936
3692,3.692,-1.615448
3693,3.693,-1.653137
3694,3.694,-1.622314
3695,3.6950000000000003,-1.654816
3696,3.696,-1.654816
3697,3.697,-1.654205
3698,3.698,-1.656647
3699,3.6990000000000003,-1.630707
3700,3.7,-1.67923
3701,3.701,-1.660309
3702,3.702,-1.613617
3703,3.7030000000000003,-1.6716
3704,3.704,-1.650696
3705,3.705,-1.618805
3706,3.706,-1.633606
3707,3.7070000000000003,-1.666107
3708,3.708,-1.669159
3709,3.709,-1.638947
3710,3.71,-1.619415
3711,3.7110000000000003,-1.655884
3712,3.712,-1.646729
3713,3.713,-1.623688
3714,3.714,-1.601562
3715,3.715,-1.634674
3716,3.716,-1.673737
3717,3.717,-1.644135
3718,3.718,-1.611328
3719,3.719,-1.616058
3720,3.72,-1.617432
3721,3.721,-1.649933
3722,3.722,-1.643066
3723,3.723,-1.629791
3724,3.724,-1.611633
3725,3.725,-1.62735
3726,3.726,-1.655273
3727,3.727,-1.659241
3728,3.728,-1.646118
3729,3.729,-1.604004
3730,3.73,-1.616058
3731,3.731,-1.62796
3732,3.732,-1.586761
3733,3.733,-1.642914
3734,3.734,-1.68869
3735,3.735,-1.66153
3736,3.736,-1.619873
3737,3.737,-1.618652
3738,3.738,-1.674652
3739,3.739,-1.630402
3740,3.74,-1.593475
3741,3.741,-1.620789
3742,3.742,-1.625366
3743,3.743,-1.615143
3744,3.744,-1.634369
3745,3.745,-1.646881
3746,3.746,-1.625671
3747,3.747,-1.620483
3748,3.748,-1.65741
3749,3.749,-1.626434
3750,3.75,-1.613922
3751,3.751,-1.638184
3752,3.7520000000000002,-1.590729
3753,3.753,-1.625977
3754,3.754,-1.595612
3755,3.755,-1.58905
3756,3.7560000000000002,-1.636658
3757,3.757,-1.611023
3758,3.758,-1.615143
3759,3.759,-1.606598
3760,3.7600000000000002,-1.629486
3761,3.761,-1.603546
3762,3.762,-1.610413
3763,3.763,-1.628571
3764,3.7640000000000002,-1.599579
3765,3.765,-1.641998
3766,3.766,-1.627655
3767,3.767,-1.607208
3768,3.7680000000000002,-1.60553
3769,3.769,-1.601868
3770,3.77,-1.580963
3771,3.771,-1.581268
3772,3.7720000000000002,-1.595001
3773,3.773,-1.625977
3774,3.774,-1.616058
3775,3.775,-1.59317
3776,3.7760000000000002,-1.605835
3777,3.777,-1.612244
3778,3.778,-1.647339
3779,3.779,-1.624298
3780,3.7800000000000002,-1.621857
3781,3.781,-1.611633
3782,3.782,-1.595917
3783,3.783,-1.629486
3784,3.7840000000000003,-1.6008
3785,3.785,-1.571045
3786,3.786,-1.57547
3787,3.787,-1.60553
3788,3.7880000000000003,-1.576843
3789,3.789,-1.595459
3790,3.79,-1.602631
3791,3.791,-1.618958
3792,3.7920000000000003,-1.612091
3793,3.793,-1.62323
3794,3.794,-1.611328
3795,3.795,-1.635284
3796,3.7960000000000003,-1.643524
3797,3.797,-1.629028
3798,3.798,-1.573639
3799,3.799,-1.590576
3800,3.8000000000000003,-1.61972
3801,3.801,-1.618042
3802,3.802,-1.638947
3803,3.803,-1.611938
3804,3.8040000000000003,-1.600952
3805,3.805,-1.550751
3806,3.806,-1.573792
3807,3.807,-1.586456
3808,3.8080000000000003,-1.592102
3809,3.809,-1.605072
3810,3.81,-1.597443
3811,3.811,-1.61377
3812,3.8120000000000003,-1.5802
3813,3.813,-1.585236
3814,3.814,-1.593475
3815,3.815,-1.589966
3816,3.8160000000000003,-1.586761
3817,3.817,-1.588593
3818,3.818,-1.571503
3819,3.819,-1.571198
3820,3.8200000000000003,-1.590118
3821,3.821,-1.562805
3822,3.822,-1.548767
3823,3.823,-1.559753
3824,3.8240000000000003,-1.568146
3825,3.825,-1.566772
3826,3.826,-1.592865
3827,3.827,-1.560059
3828,3.8280000000000003,-1.55777
3829,3.829,-1.613159
3830,3.83,-1.587219
3831,3.831,-1.640778
3832,3.8320000000000003,-1.639404
3833,3.833,-1.581573
3834,3.834,-1.639252
3835,3.835,-1.623383
3836,3.8360000000000003,-1.574249
3837,3.837,-1.586914
3838,3.838,-1.581268
3839,3.839,-1.589813
3840,3.84,-1.594086
3841,3.841,-1.622009
3842,3.842,-1.613007
3843,3.843,-1.611023
3844,3.844,-1.577454
3845,3.845,-1.616211
3846,3.846,-1.608582
3847,3.847,-1.628723
3848,3.848,-1.61087
3849,3.849,-1.63208
3850,3.85,-1.594391
3851,3.851,-1.579742
3852,3.852,-1.600952
3853,3.853,-1.581116
3854,3.854,-1.578064
3855,3.855,-1.577911
3856,3.856,-1.572113
3857,3.857,-1.581573
3858,3.858,-1.585083
3859,3.859,-1.547546
3860,3.86,-1.566162
3861,3.861,-1.58371
3862,3.862,-1.582489
3863,3.863,-1.614685
3864,3.864,-1.599426
3865,3.865,-1.567078
3866,3.866,-1.564178
3867,3.867,-1.581268
3868,3.868,-1.57486
3869,3.869,-1.56601
3870,3.87,-1.524048
3871,3.871,-1.530914
3872,3.872,-1.560059
3873,3.873,-1.591949
3874,3.874,-1.553802
3875,3.875,-1.554718
3876,3.876,-1.569366
3877,3.8770000000000002,-1.576691
3878,3.878,-1.57608
3879,3.879,-1.593628
3880,3.88,-1.578369
3881,3.8810000000000002,-1.55426
3882,3.882,-1.574249
3883,3.883,-1.591644
3884,3.884,-1.585693
3885,3.8850000000000002,-1.582031
3886,3.886,-1.582336
3887,3.887,-1.569672
3888,3.888,-1.54129
3889,3.8890000000000002,-1.584625
3890,3.89,-1.55899
3891,3.891,-1.55426
3892,3.892,-1.580658
3893,3.8930000000000002,-1.57608
3894,3.894,-1.571655
3895,3.895,-1.572571
3896,3.896,-1.599274
3897,3.8970000000000002,-1.580048
3898,3.898,-1.564484
3899,3.899,-1.556244
3900,3.9,-1.548004
3901,3.9010000000000002,-1.547394
3902,3.902,-1.555634
3903,3.903,-1.564178
3904,3.904,-1.574554
3905,3.9050000000000002,-1.585846
3906,3.906,-1.602936
3907,3.907,-1.582336
3908,3.908,-1.558685
3909,3.9090000000000003,-1.549683
3910,3.91,-1.540222
3911,3.911,-1.573334
3912,3.912,-1.58783
3913,3.9130000000000003,-1.575623
3914,3.914,-1.550751
3915,3.915,-1.546783
3916,3.916,-1.571655
3917,3.9170000000000003,-1.569824
3918,3.918,-1.571655
3919,3.919,-1.553955
3920,3.92,-1.567078
3921,3.9210000000000003,-1.554565
3922,3.922,-1.541443
3923,3.923,-1.557159
3924,3.924,-1.57547
3925,3.9250000000000003,-1.581726
3926,3.926,-1.568604
3927,3.927,-1.550293
3928,3.928,-1.553345
3929,3.9290000000000003,-1.564789
3930,3.93,-1.581421
3931,3.931,-1.601868
3932,3.932,-1.560211
3933,3.9330000000000003,-1.559601
3934,3.934,-1.561127
3935,3.935,-1.580505
3936,3.936,-1.527557
3937,3.9370000000000003,-1.512451
3938,3.938,-1.520233
3939,3.939,-1.561127
3940,3.94,-1.567993
3941,3.9410000000000003,-1.587372
3942,3.942,-1.550446
3943,3.943,-1.541138
3944,3.944,-1.510468
3945,3.9450000000000003,-1.533966
3946,3.946,-1.54129
3947,3.947,-1.579132
3948,3.948,-1.552887
3949,3.9490000000000003,-1.556854
3950,3.95,-1.56311
3951,3.951,-1.546936
3952,3.952,-1.525879
3953,3.9530000000000003,-1.537018
3954,3.954,-1.551208
3955,3.955,-1.543579
3956,3.956,-1.523895
3957,3.9570000000000003,-1.515045
3958,3.958,-1.539764
3959,3.959,-1.533203
3960,3.96,-1.533661
3961,3.9610000000000003,-1.546631
3962,3.962,-1.537781
3963,3.963,-1.554871
3964,3.964,-1.529083
3965,3.9650000000000003,-1.515503
3966,3.966,-1.534271
3967,3.967,-1.507874
3968,3.968,-1.528168
3969,3.969,-1.508179
3970,3.97,-1.473999
3971,3.971,-1.508636
3972,3.972,-1.516266
3973,3.973,-1.484375
3974,3.974,-1.501923
3975,3.975,-1.480865
3976,3.976,-1.479797
3977,3.977,-1.493378
3978,3.978,-1.500092
3979,3.979,-1.494904
3980,3.98,-1.49704
3981,3.981,-1.487122
3982,3.982,-1.475067
3983,3.983,-1.463318
3984,3.984,-1.435089
3985,3.985,-1.433868
3986,3.986,-1.422882
3987,3.987,-1.408997
3988,3.988,-1.368561
3989,3.989,-1.378174
3990,3.99,-1.395111
3991,3.991,-1.389465
3992,3.992,-1.375122
3993,3.993,-1.367798
3994,3.994,-1.365204
3995,3.995,-1.360626
3996,3.996,-1.354828
3997,3.997,-1.337433
3998,3.998,-1.306152
3999,3.999,-1.307983
4000,4.0,-1.295776
4001,4.001,-1.287994
4002,4.002,-1.283722
4003,4.003,-1.240692
4004,4.0040000000000004,-1.258392
4005,4.005,-1.265259
4006,4.006,-1.234589
4007,4.007,-1.180878
4008,4.008,-1.191254
4009,4.009,-1.197357
4010,4.01,-1.178131
4011,4.011,-1.180725
4012,4.0120000000000005,-1.173248
4013,4.013,-1.148834
4014,4.014,-1.088562
4015,4.015,-1.100311
4016,4.016,-1.075134
4017,4.017,-1.080627
4018,4.018,-1.032257
4019,4.019,-1.033325
4020,4.0200000000000005,-1.010284
4021,4.021,-1.000824
4022,4.022,-1.012268
4023,4.023,-1.049042
4024,4.024,-1.046753
4025,4.025,-1.03241
4026,4.026,-1.033783
4027,4.027,-1.05957
4028,4.0280000000000005,-1.070404
4029,4.029,-1.096344
4030,4.03,-1.128998
4031,4.031,-1.105804
4032,4.032,-1.106873
4033,4.033,-1.087036
4034,4.034,-1.069489
4035,4.035,-1.087799
4036,4.0360000000000005,-1.093903
4037,4.037,-1.122894
4038,4.038,-1.166382
4039,4.039,-1.13739
4040,4.04,-1.096191
4041,4.041,-1.078033
4042,4.042,-1.116486
4043,4.043,-1.143646
4044,4.0440000000000005,-1.17218
4045,4.045,-1.162262
4046,4.046,-1.162262
4047,4.047,-1.177979
4048,4.048,-1.156311
4049,4.049,-1.130524
4050,4.05,-1.147156
4051,4.051,-1.152954
4052,4.0520000000000005,-1.166687
4053,4.053,-1.201782
4054,4.054,-1.233826
4055,4.055,-1.21582
4056,4.056,-1.270294
4057,4.057,-1.253357
4058,4.058,-1.278992
4059,4.059,-1.304169
4060,4.0600000000000005,-1.302185
4061,4.061,-1.316071
4062,4.062,-1.304169
4063,4.063,-1.306
4064,4.064,-1.298676
4065,4.065,-1.280212
4066,4.066,-1.337433
4067,4.067,-1.338959
4068,4.0680000000000005,-1.368713
4069,4.069,-1.462402
4070,4.07,-1.420441
4071,4.071,-1.412659
4072,4.072,-1.452942
4073,4.073,-1.484528
4074,4.074,-1.473083
4075,4.075,-1.428375
4076,4.0760000000000005,-1.431885
4077,4.077,-1.485443
4078,4.078,-1.504974
4079,4.079,-1.523132
4080,4.08,-1.541901
4081,4.081,-1.555328
4082,4.082,-1.531219
4083,4.083,-1.496582
4084,4.0840000000000005,-1.521759
4085,4.085,-1.533203
4086,4.086,-1.548157
4087,4.087,-1.508331
4088,4.088,-1.490326
4089,4.089,-1.519775
4090,4.09,-1.539154
4091,4.091,-1.566467
4092,4.0920000000000005,-1.560974
4093,4.093,-1.574402
4094,4.094,-1.553955
4095,4.095,-1.517487
4096,4.096,-1.515961
4097,4.097,-1.516266
4098,4.098,-1.490021
4099,4.099,-1.532593
4100,4.1,-1.546478
4101,4.101,-1.523895
4102,4.102,-1.485138
4103,4.103,-1.437225
4104,4.104,-1.499023
4105,4.105,-1.551056
4106,4.106,-1.562042
4107,4.107,-1.529388
4108,4.108,-1.496887
4109,4.109,-1.46347
4110,4.11,-1.461945
4111,4.111,-1.461334
4112,4.112,-1.513214
4113,4.113,-1.510468
4114,4.114,-1.508789
4115,4.115,-1.52359
4116,4.116,-1.522675
4117,4.117,-1.525574
4118,4.118,-1.510925
4119,4.119,-1.50238
4120,4.12,-1.496277
4121,4.121,-1.499481
4122,4.122,-1.500854
4123,4.123,-1.479797
4124,4.124,-1.49353
4125,4.125,-1.471558
4126,4.126,-1.425018
4127,4.127,-1.450958
4128,4.128,-1.443024
4129,4.1290000000000004,-1.367035
4130,4.13,-1.374207
4131,4.131,-1.357117
4132,4.132,-1.312714
4133,4.133,-1.296997
4134,4.134,-1.235657
4135,4.135,-1.17569
4136,4.136,-1.117706
4137,4.1370000000000005,-1.028595
4138,4.138,-1.009521
4139,4.139,-0.992126
4140,4.14,-0.968323
4141,4.141,-0.920105
4142,4.142,-0.87204
4143,4.143,-0.863953
4144,4.144,-0.768738
4145,4.1450000000000005,-0.658722
4146,4.146,-0.580444
4147,4.147,-0.465393
4148,4.148,-0.280151
4149,4.149,-0.104675
4150,4.15,0.039978
4151,4.151,0.162964
4152,4.152,0.451202
4153,4.1530000000000005,0.68985
4154,4.154,0.878601
4155,4.155,1.093903
4156,4.156,1.264191
4157,4.157,1.476898
4158,4.158,1.687927
4159,4.159,1.851501
4160,4.16,1.999054
4161,4.1610000000000005,2.157288
4162,4.162,2.249908
4163,4.163,2.183533
4164,4.164,2.045746
4165,4.165,1.641083
4166,4.166,1.105194
4167,4.167,0.62851
4168,4.168,0.169678
4169,4.1690000000000005,-0.119781
4170,4.17,-0.495453
4171,4.171,-0.699615
4172,4.172,-0.836487
4173,4.173,-1.004944
4174,4.174,-1.017914
4175,4.175,-1.019287
4176,4.176,-0.977173
4177,4.1770000000000005,-1.000061
4178,4.178,-0.940247
4179,4.179,-1.04248
4180,4.18,-1.083221
4181,4.181,-1.172485
4182,4.182,-1.253662
4183,4.183,-1.283722
4184,4.184,-1.326294
4185,4.1850000000000005,-1.422577
4186,4.186,-1.492767
4187,4.187,-1.595764
4188,4.188,-1.631622
4189,4.189,-1.586761
4190,4.19,-1.581116
4191,4.191,-1.556549
4192,4.192,-1.577454
4193,4.1930000000000005,-1.558533
4194,4.194,-1.549835
4195,4.195,-1.521454
4196,4.196,-1.502991
4197,4.197,-1.482849
4198,4.198,-1.42746
4199,4.199,-1.434174
4200,4.2,-1.39801
4201,4.2010000000000005,-1.333313
4202,4.202,-1.325073
4203,4.203,-1.315308
4204,4.204,-1.298218
4205,4.205,-1.298065
4206,4.206,-1.291199
4207,4.207,-1.247253
4208,4.208,-1.278839
4209,4.2090000000000005,-1.265717
4210,4.21,-1.316833
4211,4.211,-1.333466
4212,4.212,-1.321564
4213,4.213,-1.295471
4214,4.214,-1.312408
4215,4.215,-1.313324
4216,4.216,-1.317444
4217,4.2170000000000005,-1.273956
4218,4.218,-1.256256
4219,4.219,-1.24176
4220,4.22,-1.278687
4221,4.221,-1.297302
4222,4.222,-1.261444
4223,4.223,-1.257172
4224,4.224,-1.289215
4225,4.225,-1.257782
4226,4.226,-1.280365
4227,4.227,-1.275635
4228,4.228,-1.269836
4229,4.229,-1.259003
4230,4.23,-1.260834
4231,4.231,-1.268005
4232,4.232,-1.280365
4233,4.233,-1.289368
4234,4.234,-1.262054
4235,4.235,-1.218262
4236,4.236,-1.221466
4237,4.237,-1.249237
4238,4.238,-1.226196
4239,4.239,-1.221466
4240,4.24,-1.206207
4241,4.241,-1.20697
4242,4.242,-1.255035
4243,4.243,-1.268158
4244,4.244,-1.213531
4245,4.245,-1.24176
4246,4.246,-1.272888
4247,4.247,-1.258698
4248,4.248,-1.221466
4249,4.249,-1.217041
4250,4.25,-1.243286
4251,4.251,-1.196899
4252,4.252,-1.192932
4253,4.253,-1.202087
4254,4.2540000000000004,-1.186066
4255,4.255,-1.200256
4256,4.256,-1.219025
4257,4.257,-1.198273
4258,4.258,-1.175385
4259,4.259,-1.212921
4260,4.26,-1.212616
4261,4.261,-1.193237
4262,4.2620000000000005,-1.221771
4263,4.263,-1.191254
4264,4.264,-1.152191
4265,4.265,-1.17569
4266,4.266,-1.140289
4267,4.267,-1.134186
4268,4.268,-1.146698
4269,4.269,-1.118622
4270,4.2700000000000005,-1.135864
4271,4.271,-1.167145
4272,4.272,-1.14624
4273,4.273,-1.130829
4274,4.274,-1.104889
4275,4.275,-1.130676
4276,4.276,-1.146393
4277,4.277,-1.091309
4278,4.2780000000000005,-1.091919
4279,4.279,-1.079559
4280,4.28,-1.084137
4281,4.281,-1.092682
4282,4.282,-1.108398
4283,4.283,-1.103668
4284,4.284,-1.091309
4285,4.285,-1.110992
4286,4.2860000000000005,-1.047821
4287,4.287,-1.074371
4288,4.288,-1.072998
4289,4.289,-1.089935
4290,4.29,-1.046295
4291,4.291,-1.075134
4292,4.292,-1.090546
4293,4.293,-1.103058
4294,4.2940000000000005,-1.096954
4295,4.295,-1.08963
4296,4.296,-1.117401
4297,4.297,-1.069641
4298,4.298,-1.087036
4299,4.299,-1.053619
4300,4.3,-1.05484
4301,4.301,-1.015625
4302,4.3020000000000005,-1.063995
4303,4.303,-1.019287
4304,4.304,-1.044006
4305,4.305,-0.991974
4306,4.306,-1.02356
4307,4.307,-1.014557
4308,4.308,-1.04538
4309,4.309,-1.01593
4310,4.3100000000000005,-1.026459
4311,4.311,-1.014709
4312,4.312,-1.023407
4313,4.313,-1.018066
4314,4.314,-0.957489
4315,4.315,-1.018066
4316,4.316,-0.974579
4317,4.317,-1.000671
4318,4.3180000000000005,-0.977173
4319,4.319,-0.943146
4320,4.32,-1.003876
4321,4.321,-0.977478
4322,4.322,-1.00235
4323,4.323,-0.962982
4324,4.324,-0.952454
4325,4.325,-0.930328
4326,4.3260000000000005,-0.912781
4327,4.327,-0.949249
4328,4.328,-0.961456
4329,4.329,-0.919037
4330,4.33,-0.963135
4331,4.331,-0.924377
4332,4.332,-0.883789
4333,4.333,-0.903625
4334,4.3340000000000005,-0.9198
4335,4.335,-0.890503
4336,4.336,-0.876007
4337,4.337,-0.890656
4338,4.338,-0.849915
4339,4.339,-0.825958
4340,4.34,-0.894928
4341,4.341,-0.887451
4342,4.3420000000000005,-0.801392
4343,4.343,-0.807343
4344,4.344,-0.862579
4345,4.345,-0.80307
4346,4.346,-0.75592
4347,4.347,-0.75882
4348,4.348,-0.792847
4349,4.349,-0.80368
4350,4.3500000000000005,-0.799103
4351,4.351,-0.76004
4352,4.352,-0.693207
4353,4.353,-0.701141
4354,4.354,-0.736237
4355,4.355,-0.757599
4356,4.356,-0.720215
4357,4.357,-0.70755
4358,4.358,-0.661011
4359,4.359,-0.648651
4360,4.36,-0.627136
4361,4.361,-0.639496
4362,4.362,-0.633698
4363,4.363,-0.66391
4364,4.364,-0.661163
4365,4.365,-0.661316
4366,4.366,-0.626373
4367,4.367,-0.552368
4368,4.368,-0.539398
4369,4.369,-0.53772
4370,4.37,-0.508423
4371,4.371,-0.498352
4372,4.372,-0.490723
4373,4.373,-0.492859
4374,4.374,-0.498199
4375,4.375,-0.527802
4376,4.376,-0.541229
4377,4.377,-0.523376
4378,4.378,-0.444336
4379,4.3790000000000004,-0.385284
4380,4.38,-0.39444
4381,4.381,-0.467529
4382,4.382,-0.427246
4383,4.383,-0.374908
4384,4.384,-0.387421
4385,4.385,-0.421906
4386,4.386,-0.364532
4387,4.3870000000000005,-0.280914
4388,4.388,-0.357666
4389,4.389,-0.289307
4390,4.39,-0.29068
4391,4.391,-0.334778
4392,4.392,-0.185547
4393,4.393,-0.332794
4394,4.394,-0.278625
4395,4.3950000000000005,-0.25528
4396,4.396,-0.276794
4397,4.397,-0.199432
4398,4.398,-0.29068
4399,4.399,-0.176392
4400,4.4,-0.273437
4401,4.401,-0.141296
4402,4.402,-0.211487
4403,4.4030000000000005,-0.145416
4404,4.404,-0.175323
4405,4.405,-0.193787
4406,4.406,-0.158844
4407,4.407,-0.188141
4408,4.408,-0.079346
4409,4.409,-0.211792
4410,4.41,-0.096893
4411,4.4110000000000005,-0.165558
4412,4.412,-0.182343
4413,4.413,-0.113525
4414,4.414,-0.205536
4415,4.415,-0.112305
4416,4.416,-0.179596
4417,4.417,-0.135498
4418,4.418,-0.100098
4419,4.4190000000000005,-0.179901
4420,4.42,-0.108337
4421,4.421,-0.216064
4422,4.422,-0.149994
4423,4.423,-0.1828
4424,4.424,-0.203552
4425,4.425,-0.19989
4426,4.426,-0.270233
4427,4.4270000000000005,-0.239868
4428,4.428,-0.325623
4429,4.429,-0.262146
4430,4.43,-0.340271
4431,4.431,-0.334167
4432,4.432,-0.340881
4433,4.433,-0.418701
4434,4.434,-0.344849
4435,4.4350000000000005,-0.410461
4436,4.436,-0.465851
4437,4.437,-0.400696
4438,4.438,-0.43869
4439,4.439,-0.558014
4440,4.44,-0.59906
4441,4.441,-0.53894
4442,4.442,-0.562897
4443,4.4430000000000005,-0.545959
4444,4.444,-0.610809
4445,4.445,-0.656586
4446,4.446,-0.693207
4447,4.447,-0.718079
4448,4.448,-0.725098
4449,4.449,-0.769958
4450,4.45,-0.792542
4451,4.4510000000000005,-0.801544
4452,4.452,-0.798798
4453,4.453,-0.769958
4454,4.454,-0.784912
4455,4.455,-0.829315
4456,4.456,-0.827332
4457,4.457,-0.826111
4458,4.458,-0.846252
4459,4.4590000000000005,-0.90683
4460,4.46,-0.947266
4461,4.461,-0.92804
4462,4.462,-0.917969
4463,4.463,-0.914154
4464,4.464,-0.943451
4465,4.465,-0.975037
4466,4.466,-0.963135
4467,4.4670000000000005,-0.945587
4468,4.468,-0.986938
4469,4.469,-1.010284
4470,4.47,-0.983582
4471,4.471,-0.963287
4472,4.472,-1.01593
4473,4.473,-1.021729
4474,4.474,-0.989838
4475,4.4750000000000005,-1.026917
4476,4.476,-1.065063
4477,4.477,-1.03302
4478,4.478,-1.073456
4479,4.479,-1.114502
4480,4.48,-1.053925
4481,4.481,-1.091461
4482,4.482,-1.09726
4483,4.483,-1.076202
4484,4.484,-1.094818
4485,4.485,-1.065063
4486,4.486,-1.069183
4487,4.487,-1.087646
4488,4.488,-1.054687
4489,4.489,-1.096954
4490,4.49,-1.107788
4491,4.491,-1.060181
4492,4.492,-1.132355
4493,4.493,-1.108551
4494,4.494,-1.090088
4495,4.495,-1.118469
4496,4.496,-1.085358
4497,4.497,-1.170349
4498,4.498,-1.135864
4499,4.499,-1.102295
4500,4.5,-1.11969
4501,4.501,-1.0672
4502,4.502,-1.09787
4503,4.503,-1.110229
4504,4.5040000000000004,-1.071625
4505,4.505,-1.12854
4506,4.506,-1.07605
4507,4.507,-1.081696
4508,4.508,-1.117859
4509,4.509,-1.08078
4510,4.51,-1.142578
4511,4.511,-1.116028
4512,4.5120000000000005,-1.106415
4513,4.513,-1.132965
4514,4.514,-1.105042
4515,4.515,-1.136169
4516,4.516,-1.144104
4517,4.517,-1.093903
4518,4.518,-1.122284
4519,4.519,-1.100006
4520,4.5200000000000005,-1.081696
4521,4.521,-1.122437
4522,4.522,-1.113586
4523,4.523,-1.14975
4524,4.524,-1.102448
4525,4.525,-1.07132
4526,4.526,-1.145477
4527,4.527,-1.106873
4528,4.5280000000000005,-1.145935
4529,4.529,-1.144562
4530,4.53,-1.133728
4531,4.531,-1.134033
4532,4.532,-1.101227
4533,4.533,-1.139221
4534,4.534,-1.094513
4535,4.535,-1.083527
4536,4.5360000000000005,-1.118164
4537,4.537,-1.089325
4538,4.538,-1.119995
4539,4.539,-1.101837
4540,4.54,-1.04599
4541,4.541,-1.125183
4542,4.542,-1.123505
4543,4.543,-1.094971
4544,4.5440000000000005,-1.12915
4545,4.545,-1.130676
4546,4.546,-1.113586
4547,4.547,-1.127167
4548,4.548,-1.100311
4549,4.549,-1.099854
4550,4.55,-1.147919
4551,4.551,-1.115417
4552,4.5520000000000005,-1.129456
4553,4.553,-1.089783
4554,4.554,-1.080933
4555,4.555,-1.140442
4556,4.556,-1.11496
4557,4.557,-1.131897
4558,4.558,-1.170044
4559,4.559,-1.125336
4560,4.5600000000000005,-1.149445
4561,4.561,-1.134186
4562,4.562,-1.153259
4563,4.563,-1.138611
4564,4.564,-1.096497
4565,4.565,-1.116638
4566,4.566,-1.106262
4567,4.567,-1.074677
4568,4.5680000000000005,-1.09848
4569,4.569,-1.084595
4570,4.57,-1.10672
4571,4.571,-1.143341
4572,4.572,-1.083069
4573,4.573,-1.119232
4574,4.574,-1.136322
4575,4.575,-1.086884
4576,4.5760000000000005,-1.139679
4577,4.577,-1.124725
4578,4.578,-1.145782
4579,4.579,-1.142578
4580,4.58,-1.120758
4581,4.581,-1.141968
4582,4.582,-1.05011
4583,4.583,-1.077271
4584,4.5840000000000005,-1.099854
4585,4.585,-1.048126
4586,4.586,-1.09024
4587,4.587,-1.117401
4588,4.588,-1.072083
4589,4.589,-1.086273
4590,4.59,-1.068115
4591,4.591,-1.005554
4592,4.5920000000000005,-1.052399
4593,4.593,-1.096344
4594,4.594,-1.083984
4595,4.595,-1.135559
4596,4.596,-1.109009
4597,4.597,-1.091156
4598,4.598,-1.138306
4599,4.599,-1.08963
4600,4.6000000000000005,-1.051483
4601,4.601,-1.110077
4602,4.602,-1.087494
4603,4.603,-1.061401
4604,4.604,-1.11557
4605,4.605,-1.077423
4606,4.606,-1.051483
4607,4.607,-1.134186
4608,4.6080000000000005,-1.108856
4609,4.609,-1.074677
4610,4.61,-1.142426
4611,4.611,-1.114044
4612,4.612,-1.113129
4613,4.613,-1.144867
4614,4.614,-1.108093
4615,4.615,-1.121674
4616,4.616,-1.105652
4617,4.617,-1.066895
4618,4.618,-1.134186
4619,4.619,-1.126556
4620,4.62,-1.110992
4621,4.621,-1.11908
4622,4.622,-1.08429
4623,4.623,-1.074829
4624,4.624,-1.114349
4625,4.625,-1.100464
4626,4.626,-1.079407
4627,4.627,-1.134338
4628,4.628,-1.109009
4629,4.6290000000000004,-1.115112
4630,4.63,-1.117706
4631,4.631,-1.082306
4632,4.632,-1.111145
4633,4.633,-1.060944
4634,4.634,-1.030273
4635,4.635,-1.071014
4636,4.636,-1.054993
4637,4.6370000000000005,-1.041565
4638,4.638,-1.065369
4639,4.639,-1.057281
4640,4.64,-1.092834
4641,4.641,-1.069794
4642,4.642,-1.099548
4643,4.643,-1.087646
4644,4.644,-1.035767
4645,4.6450000000000005,-1.098938
4646,4.646,-1.083374
4647,4.647,-1.110229
4648,4.648,-1.111145
4649,4.649,-1.089478
4650,4.65,-1.119537
4651,4.651,-1.051483
4652,4.652,-1.104431
4653,4.6530000000000005,-1.105347
4654,4.654,-1.100769
4655,4.655,-1.133423
4656,4.656,-1.139221
4657,4.657,-1.121368
4658,4.658,-1.101685
4659,4.659,-1.114502
4660,4.66,-1.098633
4661,4.6610000000000005,-1.080627
4662,4.662,-1.118317
4663,4.663,-1.107941
4664,4.664,-1.082764
4665,4.665,-1.088867
4666,4.666,-1.101227
4667,4.667,-1.086426
4668,4.668,-1.066742
4669,4.6690000000000005,-1.115265
4670,4.67,-1.085205
4671,4.671,-1.048584
4672,4.672,-1.07254
4673,4.673,-1.116943
4674,4.674,-1.089783
4675,4.675,-1.044464
4676,4.676,-1.099091
4677,4.6770000000000005,-1.09436
4678,4.678,-1.10611
4679,4.679,-1.102448
4680,4.68,-1.101532
4681,4.681,-1.063232
4682,4.682,-1.101227
4683,4.683,-1.062775
4684,4.684,-1.039886
4685,4.6850000000000005,-1.087189
4686,4.686,-1.100159
4687,4.687,-1.074829
4688,4.688,-1.101227
4689,4.689,-1.082153
4690,4.69,-1.068726
4691,4.691,-1.099701
4692,4.692,-1.070862
4693,4.6930000000000005,-1.084442
4694,4.694,-1.106415
4695,4.695,-1.109772
4696,4.696,-1.1026
4697,4.697,-1.058655
4698,4.698,-1.124115
4699,4.699,-1.059113
4700,4.7,-1.072845
4701,4.7010000000000005,-1.047974
4702,4.702,-1.077423
4703,4.703,-1.085663
4704,4.704,-1.076202
4705,4.705,-1.046448
4706,4.706,-1.090393
4707,4.707,-1.05545
4708,4.708,-1.120148
4709,4.7090000000000005,-1.101532
4710,4.71,-1.114807
4711,4.711,-1.1409
4712,4.712,-1.118164
4713,4.713,-1.116791
4714,4.714,-1.05835
4715,4.715,-1.095581
4716,4.716,-1.139679
4717,4.7170000000000005,-1.08139
4718,4.718,-1.066284
4719,4.719,-1.102753
4720,4.72,-1.088104
4721,4.721,-1.058197
4722,4.722,-1.095581
4723,4.723,-1.107788
4724,4.724,-1.094818
4725,4.7250000000000005,-1.056519
4726,4.726,-1.089783
4727,4.727,-1.117249
4728,4.728,-1.09787
4729,4.729,-1.078491
4730,4.73,-1.049957
4731,4.731,-1.027832
4732,4.732,-1.086578
4733,4.7330000000000005,-1.136475
4734,4.734,-1.106567
4735,4.735,-1.080627
4736,4.736,-1.070862
4737,4.737,-1.080322
4738,4.738,-1.116028
4739,4.739,-1.110229
4740,4.74,-1.059875
4741,4.741,-1.033478
4742,4.742,-1.057892
4743,4.743,-1.096039
4744,4.744,-1.131287
4745,4.745,-1.121521
4746,4.746,-1.09848
4747,4.747,-1.054077
4748,4.748,-1.124878
4749,4.749,-1.141815
4750,4.75,-1.097565
4751,4.751,-1.083527
4752,4.752,-1.089325
4753,4.753,-1.08139
4754,4.7540000000000004,-1.096344
4755,4.755,-1.105042
4756,4.756,-1.087189
4757,4.757,-1.083069
4758,4.758,-1.067657
4759,4.759,-1.118469
4760,4.76,-1.134338
4761,4.761,-1.111908
4762,4.7620000000000005,-1.124573
4763,4.763,-1.128387
4764,4.764,-1.178131
4765,4.765,-1.147308
4766,4.766,-1.084137
4767,4.767,-1.060638
4768,4.768,-1.067352
4769,4.769,-1.080322
4770,4.7700000000000005,-1.098328
4771,4.771,-1.109161
4772,4.772,-1.089172
4773,4.773,-1.049805
4774,4.774,-1.014252
4775,4.775,-1.014709
4776,4.776,-1.056366
4777,4.777,-1.087494
4778,4.7780000000000005,-1.06781
4779,4.779,-1.058197
4780,4.78,-1.097107
4781,4.781,-1.069489
4782,4.782,-1.083221
4783,4.783,-1.052704
4784,4.784,-1.092987
4785,4.785,-1.073761
4786,4.7860000000000005,-1.071777
4787,4.787,-1.079254
4788,4.788,-1.078033
4789,4.789,-1.075287
4790,4.79,-1.035156
4791,4.791,-1.016541
4792,4.792,-1.039886
4793,4.793,-1.045532
4794,4.7940000000000005,-1.042023
4795,4.795,-1.067505
4796,4.796,-1.063385
4797,4.797,-1.052094
4798,4.798,-1.025848
4799,4.799,-1.077271
4800,4.8,-1.093597
4801,4.801,-1.066284
4802,4.8020000000000005,-1.055908
4803,4.803,-1.057434
4804,4.804,-1.060638
4805,4.805,-1.066437
4806,4.806,-1.038971
4807,4.807,-1.092529
4808,4.808,-1.073303
4809,4.809,-1.078491
4810,4.8100000000000005,-1.085205
4811,4.811,-1.068115
4812,4.812,-1.078644
4813,4.813,-1.047821
4814,4.814,-1.073456
4815,4.815,-1.033783
4816,4.816,-1.09787
4817,4.817,-1.056824
4818,4.8180000000000005,-1.027679
4819,4.819,-1.004791
4820,4.82,-1.003113
4821,4.821,-1.044922
4822,4.822,-1.05423
4823,4.823,-1.040802
4824,4.824,-1.073456
4825,4.825,-1.044617
4826,4.8260000000000005,-1.073456
4827,4.827,-1.078644
4828,4.828,-1.087799
4829,4.829,-1.059113
4830,4.83,-1.096802
4831,4.831,-1.07193
4832,4.832,-1.033783
4833,4.833,-0.984344
4834,4.8340000000000005,-1.018219
4835,4.835,-1.001587
4836,4.836,-1.000519
4837,4.837,-1.060333
4838,4.838,-1.11557
4839,4.839,-1.118317
4840,4.84,-1.097717
4841,4.841,-1.066589
4842,4.8420000000000005,-1.109772
4843,4.843,-1.107635
4844,4.844,-1.086273
4845,4.845,-1.103668
4846,4.846,-1.084595
4847,4.847,-1.116791
4848,4.848,-1.078339
4849,4.849,-1.03714
4850,4.8500000000000005,-1.014099
4851,4.851,-1.026154
4852,4.852,-1.078339
4853,4.853,-1.090851
4854,4.854,-1.088409
4855,4.855,-1.034393
4856,4.856,-1.053619
4857,4.857,-1.077728
4858,4.8580000000000005,-1.093597
4859,4.859,-1.08078
4860,4.86,-1.044769
4861,4.861,-1.054993
4862,4.862,-1.077881
4863,4.863,-1.082306
4864,4.864,-1.03653
4865,4.865,-1.075745
4866,4.866,-1.069794
4867,4.867,-1.05896
4868,4.868,-1.038055
4869,4.869,-1.061554
4870,4.87,-1.135864
4871,4.871,-1.096497
4872,4.872,-1.05484
4873,4.873,-1.077728
4874,4.874,-1.110992
4875,4.875,-1.056976
4876,4.876,-1.017303
4877,4.877,-1.051636
4878,4.878,-1.134644
4879,4.8790000000000004,-1.124268
4880,4.88,-1.060944
4881,4.881,-1.052704
4882,4.882,-1.070251
4883,4.883,-1.091766
4884,4.884,-1.073914
4885,4.885,-1.017609
4886,4.886,-1.026001
4887,4.8870000000000005,-1.062927
4888,4.888,-1.062927
4889,4.889,-1.004486
4890,4.89,-0.986938
4891,4.891,-1.045685
4892,4.892,-1.079407
4893,4.893,-1.069794
4894,4.894,-1.052704
4895,4.8950000000000005,-1.077271
4896,4.896,-1.095276
4897,4.897,-1.065216
4898,4.898,-1.026764
4899,4.899,-1.056366
4900,4.9,-1.085968
4901,4.901,-1.055298
4902,4.902,-1.016235
4903,4.9030000000000005,-0.973663
4904,4.904,-0.997009
4905,4.905,-1.074829
4906,4.906,-1.085205
4907,4.907,-1.038208
4908,4.908,-1.06308
4909,4.909,-1.076355
4910,4.91,-1.098785
4911,4.9110000000000005,-1.050262
4912,4.912,-1.05545
4913,4.913,-1.052399
4914,4.914,-1.036682
4915,4.915,-1.040955
4916,4.916,-1.071167
4917,4.917,-1.065521
4918,4.918,-0.998688
4919,4.9190000000000005,-1.021881
4920,4.92,-1.057434
4921,4.921,-1.01059
4922,4.922,-0.988922
4923,4.923,-1.038361
4924,4.924,-1.022644
4925,4.925,-0.988159
4926,4.926,-0.998993
4927,4.9270000000000005,-1.055145
4928,4.928,-1.066742
4929,4.929,-0.99762
4930,4.93,-0.993958
4931,4.931,-1.042633
4932,4.932,-1.0112
4933,4.933,-0.982056
4934,4.934,-1.038513
4935,4.9350000000000005,-1.03363
4936,4.936,-0.98175
4937,4.937,-1.047058
4938,4.938,-1.043701
4939,4.939,-1.026154
4940,4.94,-1.044312
4941,4.941,-1.038666
4942,4.942,-0.990448
4943,4.9430000000000005,-1.026154
4944,4.944,-1.048737
4945,4.945,-1.040955
4946,4.946,-1.017303
4947,4.947,-1.016998
4948,4.948,-1.003418
4949,4.949,-0.995178
4950,4.95,-1.01944
4951,4.9510000000000005,-1.009216
4952,4.952,-0.987549
4953,4.953,-1.007385
4954,4.954,-1.010742
4955,4.955,-0.984344
4956,4.956,-1.030273
4957,4.957,-1.007538
4958,4.958,-0.973969
4959,4.9590000000000005,-1.031494
4960,4.96,-0.995789
4961,4.961,-1.026764
4962,4.962,-1.013641
4963,4.963,-0.981445
4964,4.964,-1.012573
4965,4.965,-0.978088
4966,4.966,-0.935669
4967,4.9670000000000005,-0.92926
4968,4.968,-0.895386
4969,4.969,-0.835876
4970,4.97,-0.870361
4971,4.971,-0.916901
4972,4.972,-0.877533
4973,4.973,-0.842438
4974,4.974,-0.858459
4975,4.9750000000000005,-0.871735
4976,4.976,-0.883942
4977,4.977,-0.774841
4978,4.978,-0.77652
4979,4.979,-0.809021
4980,4.98,-0.788269
4981,4.981,-0.792999
4982,4.982,-0.778961
4983,4.9830000000000005,-0.733032
4984,4.984,-0.690765
4985,4.985,-0.709686
4986,4.986,-0.706787
4987,4.987,-0.717926
4988,4.988,-0.737
4989,4.989,-0.732422
4990,4.99,-0.680389
4991,4.9910000000000005,-0.635834
4992,4.992,-0.597076
4993,4.993,-0.579681
4994,4.994,-0.569305
4995,4.995,-0.606995
4996,4.996,-0.611877
4997,4.997,-0.598297
4998,4.998,-0.57724
4999,4.999,-0.566711
5000,5.0,-0.526276
5001,5.001,-0.487366
5002,5.002,-0.486145
5003,5.003,-0.490875
5004,5.0040000000000004,-0.481567
5005,5.005,-0.502319
5006,5.006,-0.527191
5007,5.007,-0.555878
5008,5.008,-0.563965
5009,5.009,-0.561066
5010,5.01,-0.565186
5011,5.011,-0.607147
5012,5.0120000000000005,-0.618286
5013,5.013,-0.584717
5014,5.014,-0.631409
5015,5.015,-0.657654
5016,5.016,-0.639496
5017,5.017,-0.652161
5018,5.018,-0.611572
5019,5.019,-0.589294
5020,5.0200000000000005,-0.603485
5021,5.021,-0.585937
5022,5.022,-0.641327
5023,5.023,-0.612488
5024,5.024,-0.65033
5025,5.025,-0.659027
5026,5.026,-0.686646
5027,5.027,-0.694275
5028,5.0280000000000005,-0.656586
5029,5.029,-0.679932
5030,5.03,-0.645142
5031,5.031,-0.693359
5032,5.032,-0.701752
5033,5.033,-0.694427
5034,5.034,-0.674591
5035,5.035,-0.666351
5036,5.0360000000000005,-0.709534
5037,5.037,-0.723267
5038,5.038,-0.745544
5039,5.039,-0.761108
5040,5.04,-0.746002
5041,5.041,-0.756378
5042,5.042,-0.806885
5043,5.043,-0.831451
5044,5.0440000000000005,-0.858459
5045,5.045,-0.843964
5046,5.046,-0.87265
5047,5.047,-0.890961
5048,5.048,-0.899048
5049,5.049,-0.949249
5050,5.05,-0.955353
5051,5.051,-0.937347
5052,5.0520000000000005,-0.935059
5053,5.053,-0.925293
5054,5.054,-0.939789
5055,5.055,-0.986938
5056,5.056,-0.998993
5057,5.057,-0.991211
5058,5.058,-1.009216
5059,5.059,-1.030579
5060,5.0600000000000005,-1.03714
5061,5.061,-1.048737
5062,5.062,-1.040192
5063,5.063,-1.007996
5064,5.064,-0.994415
5065,5.065,-1.040192
5066,5.066,-1.025848
5067,5.067,-1.02356
5068,5.0680000000000005,-1.028748
5069,5.069,-1.012573
5070,5.07,-1.034088
5071,5.071,-1.013489
5072,5.072,-1.023712
5073,5.073,-0.998688
5074,5.074,-1.038055
5075,5.075,-1.05072
5076,5.0760000000000005,-1.037903
5077,5.077,-1.05072
5078,5.078,-1.043701
5079,5.079,-1.048126
5080,5.08,-1.012268
5081,5.081,-0.994568
5082,5.082,-1.018066
5083,5.083,-1.001892
5084,5.0840000000000005,-0.9758
5085,5.085,-0.982056
5086,5.086,-1.023407
5087,5.087,-0.9935
5088,5.088,-0.979156
5089,5.089,-1.014557
5090,5.09,-1.040344
5091,5.091,-1.00174
5092,5.0920000000000005,-0.98465
5093,5.093,-1.021118
5094,5.094,-1.02066
5095,5.095,-1.024475
5096,5.096,-1.03241
5097,5.097,-0.99884
5098,5.098,-1.009369
5099,5.099,-1.01532
5100,5.1000000000000005,-0.974579
5101,5.101,-0.977325
5102,5.102,-0.9552
5103,5.103,-1.002655
5104,5.104,-1.003876
5105,5.105,-0.954437
5106,5.106,-0.926819
5107,5.107,-0.949097
5108,5.1080000000000005,-0.953522
5109,5.109,-0.910187
5110,5.11,-0.879364
5111,5.111,-0.816345
5112,5.112,-0.77652
5113,5.113,-0.719147
5114,5.114,-0.696259
5115,5.115,-0.645905
5116,5.1160000000000005,-0.652008
5117,5.117,-0.621185
5118,5.118,-0.451355
5119,5.119,-0.518951
5120,5.12,-0.531158
5121,5.121,-0.408173
5122,5.122,-0.443115
5123,5.123,-0.245819
5124,5.124,-0.275421
5125,5.125,-0.152435
5126,5.126,-0.016327
5127,5.127,0.121002
5128,5.128,0.2771
5129,5.1290000000000004,0.373993
5130,5.13,0.617065
5131,5.131,0.816803
5132,5.132,1.001434
5133,5.133,1.233826
5134,5.134,1.482544
5135,5.135,1.620483
5136,5.136,1.794128
5137,5.1370000000000005,1.999359
5138,5.138,2.201233
5139,5.139,2.366028
5140,5.14,2.533417
5141,5.141,2.617035
5142,5.142,2.592621
5143,5.143,2.452698
5144,5.144,2.205048
5145,5.1450000000000005,1.718903
